#Acq. time (s)=	15
#Accumulations=	4
#Range (cm-¹)=	50...4000
#Windows=	3
#Autofocus=	Off
#AutoExposure=	Off
#Spike filter=	Multiple accum.
#Delay time (s)=	0
#Binning=	1
#Readout mode=	Signal
#DeNoise=	Off
#ICS correction=	Off
#Dark correction=	Off
#Inst. Process=	Off
#Instrument=	LabRAM HR Evol
#Detector=	Syncerity OE
#Objective=	x100_VIS
#Grating=	600 (500nm)
#ND Filter=	5%
#Laser=	532nm_Edge
#Hole=	100.021
#Range=	Visible
#Project=	Omar
#Sample=	120523
#Site=	ap
#Title=	mz
#Remark=	5 laser intensity
#Date=	12.05.2023 16:56
#Acquired=	12.05.2023 16:56:50
51.0297	26
52.8754	30.5915
54.7185	35.8496
56.5635	38.4411
58.406	50.3659
60.2502	66.9574
62.0919	92.2156
63.9355	125.474
65.7765	144.065
67.6193	182.657
69.4595	207.248
71.3016	249.173
73.1412	293.764
74.9825	341.023
76.8214	365.614
78.662	388.872
80.5001	404.797
82.34	430.055
84.1774	463.313
86.0166	469.238
87.8532	485.83
89.6917	489.088
91.5276	470.346
93.3632	488.937
95.2006	479.529
97.0355	486.787
98.8721	476.045
100.706	477.97
102.54	487.895
104.376	488.486
106.209	505.744
108.041	526.336
109.876	502.927
111.708	506.186
113.542	495.444
115.373	508.702
117.204	491.293
119.036	498.551
120.867	502.476
122.697	496.401
124.526	478.993
126.357	494.251
128.186	482.842
130.014	488.767
131.845	493.358
133.672	486.617
135.5	495.875
137.327	502.466
139.155	499.058
140.982	504.316
142.807	494.907
144.633	496.165
146.46	512.757
148.285	496.682
150.11	493.94
151.934	511.865
153.757	508.456
155.583	495.714
157.406	524.973
159.229	502.897
161.051	519.489
162.873	488.08
164.697	500.005
166.518	497.263
168.339	515.188
170.159	482.446
171.98	503.704
173.799	508.963
175.619	474.887
177.44	516.146
179.259	495.404
181.077	485.995
182.895	493.92
184.713	486.511
186.53	494.436
188.347	503.694
190.164	493.619
191.98	515.544
193.796	488.802
195.612	506.06
197.427	499.985
199.242	520.577
201.059	495.168
202.873	511.093
204.686	487.018
206.5	500.943
208.313	503.534
210.126	506.126
211.938	485.384
213.75	501.975
215.562	477.9
217.373	493.158
219.184	493.083
220.993	493.674
222.803	494.266
224.613	488.857
226.422	472.782
228.232	486.04
230.04	488.632
231.849	455.223
233.657	480.481
235.465	469.073
237.272	478.998
239.079	480.922
240.886	460.847
242.693	482.772
244.497	480.03
246.302	493.288
248.108	490.547
249.913	491.805
251.717	488.396
253.521	480.321
255.325	489.579
257.127	492.171
258.93	469.429
260.733	486.02
262.535	465.945
264.338	489.203
266.137	473.795
267.939	472.386
269.74	478.978
271.541	485.569
273.341	491.494
275.139	473.419
276.939	473.344
278.738	468.602
280.537	478.527
282.334	474.451
284.132	483.043
285.93	470.301
287.728	469.559
289.523	478.817
291.32	473.409
293.117	478
294.911	473.925
296.707	463.183
298.502	477.775
300.295	467.033
302.09	483.624
303.885	480.216
305.677	481.474
307.47	480.065
309.264	489.99
311.055	501.248
312.848	495.84
314.64	485.765
316.43	479.023
318.222	478.948
320.011	489.539
321.802	480.131
323.593	484.722
325.381	490.647
327.171	485.905
328.958	495.83
330.748	482.421
332.535	485.68
334.323	495.604
336.109	495.529
337.897	486.787
339.685	465.379
341.47	492.637
343.257	493.895
345.041	494.487
346.827	487.745
348.611	490.336
350.397	494.928
352.18	500.852
353.962	494.777
355.747	478.035
357.529	473.96
359.312	496.552
361.094	483.143
362.877	489.068
364.658	483.66
366.44	490.251
368.22	502.176
369.999	488.101
371.781	498.692
373.56	504.617
375.34	486.542
377.119	490.467
378.896	490.391
380.676	497.65
382.453	492.241
384.23	496.166
386.009	510.091
387.785	483.349
389.561	511.274
391.338	511.198
393.113	504.457
394.888	515.715
396.665	496.973
398.439	504.898
400.213	517.489
401.988	508.747
403.761	516.005
405.534	503.93
407.306	495.855
409.081	507.78
410.852	499.705
412.624	510.963
414.395	512.888
416.167	510.812
417.938	506.737
419.708	502.662
421.477	512.587
423.249	517.178
425.018	518.437
426.786	505.695
428.555	498.286
430.323	514.878
432.092	510.802
433.86	502.061
435.627	494.652
437.393	505.91
439.16	479.168
440.926	503.093
442.691	515.685
444.458	516.276
446.223	506.868
447.988	512.792
449.752	520.717
451.516	495.975
453.28	516.567
455.043	529.158
456.806	511.083
458.568	515.008
460.33	510.266
462.092	519.524
463.854	518.782
465.615	516.041
467.378	521.299
469.138	519.224
470.899	520.482
472.658	508.407
474.418	516.331
476.177	510.256
477.936	507.514
479.694	525.439
481.452	519.364
483.21	517.955
484.966	522.547
486.723	519.138
488.48	503.73
490.236	544.988
491.992	512.913
493.748	529.504
495.503	526.096
497.258	508.687
499.013	520.612
500.768	515.87
502.522	516.462
504.276	521.72
506.029	524.978
507.78	533.569
509.533	508.828
511.285	526.086
513.037	536.677
514.789	517.269
516.54	527.193
518.289	545.118
520.04	537.71
521.791	540.968
523.541	544.226
525.29	537.484
527.04	537.409
528.787	538.001
530.536	528.592
532.284	533.184
534.032	534.442
535.778	534.367
537.525	541.625
539.272	529.549
541.019	541.474
542.763	544.732
544.509	530.657
546.255	531.249
548	540.507
549.743	548.432
551.488	532.356
553.232	531.615
554.974	551.539
556.718	534.131
558.462	537.389
560.203	517.98
561.945	553.905
563.688	546.497
565.428	543.088
567.169	554.346
568.911	539.605
570.65	524.196
572.391	534.121
574.129	544.712
575.869	530.637
577.609	546.562
579.346	548.487
581.085	533.078
582.822	543.003
584.56	538.261
586.296	543.519
588.034	544.111
589.771	564.036
591.506	539.961
593.243	525.219
594.978	520.477
596.714	544.402
598.447	552.993
600.183	540.251
601.916	541.509
603.651	540.768
605.383	550.026
607.117	549.284
608.849	559.209
610.582	549.8
612.313	535.725
614.044	544.983
615.776	565.575
617.507	569.499
619.238	550.758
620.968	573.349
622.699	575.94
624.428	572.532
626.156	564.457
627.886	559.048
629.614	572.973
631.342	575.565
633.071	560.156
634.797	564.081
636.526	565.339
638.252	578.597
639.978	572.522
641.705	556.447
643.431	559.705
645.155	563.63
646.88	548.221
648.606	570.813
650.33	560.738
652.053	543.996
653.779	555.92
655.502	556.512
657.224	547.77
658.946	563.695
660.67	564.953
662.392	552.878
664.113	546.136
665.834	558.061
667.556	547.986
669.277	565.244
670.997	577.835
672.716	539.093
674.435	559.018
676.156	541.61
677.875	556.201
679.593	557.459
681.311	560.051
683.029	547.976
684.746	576.567
686.465	556.492
688.182	567.083
689.898	563.008
691.614	555.6
693.33	565.525
695.045	551.449
696.76	546.708
698.475	564.632
700.189	579.891
701.904	567.149
703.619	560.407
705.333	583.665
707.046	575.59
708.759	574.181
710.471	573.439
712.183	559.364
713.895	562.622
715.606	575.214
717.317	569.805
719.028	571.73
720.739	549.655
722.449	574.913
724.159	576.838
725.868	555.429
727.578	568.687
729.286	566.612
730.995	555.204
732.703	571.129
734.409	581.72
736.117	578.978
737.824	563.57
739.531	564.828
741.237	578.753
742.944	577.344
744.65	563.269
746.355	564.527
748.061	575.785
749.766	559.71
751.468	561.635
753.173	574.893
754.877	561.484
756.581	563.409
758.284	584.001
759.987	583.259
761.688	585.184
763.39	570.442
765.092	560.367
766.794	579.625
768.496	546.216
770.195	564.141
771.896	576.066
773.596	583.991
775.296	579.249
776.994	572.507
778.694	582.432
780.393	579.023
782.092	558.281
783.788	576.206
785.487	569.465
787.185	568.723
788.882	565.981
790.578	567.906
792.274	571.164
793.971	569.089
795.666	561.68
797.362	556.272
799.057	558.863
800.751	582.121
802.446	584.713
804.138	574.637
805.833	569.229
807.527	568.487
809.219	590.412
810.912	589.003
812.605	563.595
814.296	596.853
815.989	588.111
817.679	586.036
819.371	599.961
821.06	591.219
822.752	605.144
824.441	597.735
826.131	602.993
827.822	583.585
829.51	602.176
831.199	606.101
832.887	595.359
834.576	599.284
836.262	617.209
837.951	600.467
839.637	624.392
841.323	590.317
843.01	592.908
844.695	594.166
846.382	612.091
848.066	604.683
849.753	579.941
851.436	607.866
853.122	632.457
854.805	599.715
856.488	589.64
858.173	597.565
859.855	602.156
861.539	607.414
863.221	624.673
864.902	627.931
866.585	617.189
868.266	615.114
869.946	623.705
871.628	603.63
873.308	615.555
874.987	613.48
876.668	616.738
878.347	599.329
880.026	605.921
881.704	610.512
883.384	601.104
885.061	583.695
886.739	586.953
888.418	588.878
890.094	595.47
891.771	594.728
893.447	589.986
895.122	578.577
896.799	589.836
898.475	573.76
900.149	603.685
901.824	600.943
903.498	608.201
905.174	604.793
906.847	595.384
908.52	601.309
910.193	586.567
911.866	603.159
913.538	597.084
915.212	576.342
916.883	605.6
918.555	582.858
920.226	610.783
921.896	594.708
923.567	608.633
925.237	583.224
926.907	587.149
928.576	582.407
930.245	592.332
931.914	598.257
933.584	603.515
935.253	600.773
936.92	589.364
938.588	601.289
940.255	580.547
941.922	603.806
943.589	603.73
945.255	592.322
946.921	584.913
948.587	618.172
950.252	599.43
951.917	624.688
953.582	623.946
955.244	602.537
956.909	624.462
958.572	610.387
960.236	604.312
961.899	635.57
963.562	605.495
965.225	595.42
966.887	592.678
968.549	621.936
970.211	610.527
971.872	613.786
973.531	609.71
975.192	616.302
976.852	610.893
978.512	596.818
980.172	612.743
981.831	610.668
983.489	615.259
985.148	606.517
986.806	619.776
988.464	583.7
990.122	606.958
991.778	610.217
993.435	608.141
995.092	602.066
996.749	610.658
998.404	619.916
1000.06	630.507
1001.72	629.766
1003.37	651.024
1005.02	629.615
1006.68	646.207
1008.33	649.465
1009.99	646.056
1011.64	640.648
1013.29	645.906
1014.95	629.831
1016.6	623.089
1018.25	629.014
1019.9	617.605
1021.55	627.53
1023.2	630.788
1024.85	625.38
1026.51	629.304
1028.16	627.229
1029.81	621.821
1031.46	627.079
1033.1	612.337
1034.75	628.928
1036.4	617.52
1038.05	616.111
1039.7	627.37
1041.34	607.961
1042.99	634.553
1044.64	628.477
1046.29	616.402
1047.93	623.66
1049.58	629.585
1051.22	628.843
1052.87	634.101
1054.51	648.693
1056.16	647.284
1057.8	641.209
1059.45	651.801
1061.09	625.059
1062.73	632.317
1064.38	636.908
1066.02	664.167
1067.66	663.425
1069.3	651.35
1070.95	641.941
1072.59	662.533
1074.23	646.457
1075.87	631.049
1077.51	640.307
1079.15	652.898
1080.79	637.49
1082.43	647.415
1084.07	610.006
1085.71	631.264
1087.35	626.523
1088.99	643.781
1090.62	664.372
1092.26	633.63
1093.9	629.555
1095.53	648.813
1097.17	631.405
1098.81	641.33
1100.44	626.588
1102.08	643.846
1103.71	643.104
1105.35	649.695
1106.99	636.954
1108.62	648.878
1110.25	620.137
1111.89	632.061
1113.52	642.653
1115.15	628.578
1116.79	632.503
1118.42	630.427
1120.05	631.019
1121.68	635.61
1123.31	658.202
1124.95	642.793
1126.58	652.718
1128.21	625.31
1129.84	656.568
1131.47	661.159
1133.1	645.751
1134.73	648.342
1136.36	657.6
1137.98	646.858
1139.61	645.45
1141.24	648.041
1142.87	667.3
1144.5	658.558
1146.12	670.482
1147.75	694.407
1149.38	688.332
1151	735.59
1152.63	754.848
1154.26	760.773
1155.88	760.031
1157.51	771.289
1159.13	774.548
1160.76	739.806
1162.38	754.397
1164	698.989
1165.63	696.247
1167.25	694.172
1168.87	687.43
1170.49	679.355
1172.12	648.613
1173.74	673.871
1175.36	673.129
1176.98	667.054
1178.6	652.979
1180.22	657.57
1181.84	682.162
1183.46	680.753
1185.08	683.345
1186.7	679.27
1188.32	685.861
1189.94	680.453
1191.56	692.377
1193.18	693.635
1194.79	663.56
1196.41	680.152
1198.03	662.743
1199.64	672.001
1201.26	655.926
1202.88	665.184
1204.49	680.443
1206.11	657.701
1207.72	648.959
1209.34	657.55
1210.95	656.142
1212.57	674.067
1214.18	665.991
1215.8	659.916
1217.41	645.841
1219.02	650.432
1220.64	633.024
1222.25	648.282
1223.86	649.54
1225.47	630.132
1227.08	647.39
1228.69	655.981
1230.3	632.573
1231.92	644.498
1233.53	645.089
1235.14	639.681
1236.75	629.605
1238.35	655.53
1239.96	635.455
1241.57	646.047
1243.18	657.305
1244.79	639.229
1246.4	643.821
1248.01	634.412
1249.61	605.004
1251.22	635.595
1252.82	646.187
1254.43	640.112
1256.04	640.037
1257.64	647.295
1259.25	642.553
1260.85	647.811
1262.46	681.736
1264.06	666.327
1265.67	661.585
1267.27	670.177
1268.87	649.435
1270.48	642.026
1272.08	645.285
1273.68	644.543
1275.28	651.134
1276.89	648.392
1278.49	648.317
1280.09	633.575
1281.69	644.834
1283.29	663.425
1284.89	671.35
1286.49	661.275
1288.09	659.199
1289.69	655.791
1291.29	664.382
1292.89	664.307
1294.49	646.232
1296.09	652.824
1297.68	662.082
1299.28	629.34
1300.88	680.598
1302.48	671.856
1304.07	656.448
1305.67	668.372
1307.26	636.964
1308.86	644.889
1310.46	646.147
1312.05	656.072
1313.65	669.33
1315.24	651.255
1316.84	661.846
1318.43	674.438
1320.02	670.362
1321.62	640.954
1323.21	654.212
1324.8	668.137
1326.39	662.062
1327.99	657.986
1329.58	666.578
1331.17	655.169
1332.76	656.428
1334.35	661.019
1335.94	670.277
1337.53	666.202
1339.12	652.127
1340.71	634.718
1342.3	656.643
1343.89	626.568
1345.48	678.493
1347.07	657.084
1348.65	655.009
1350.24	654.934
1351.83	662.192
1353.42	654.117
1355	651.375
1356.59	685.966
1358.18	668.558
1359.76	657.149
1361.35	651.074
1362.93	643.666
1364.52	660.924
1366.1	662.849
1367.69	656.107
1369.27	642.698
1370.86	653.956
1372.44	653.881
1374.02	645.139
1375.61	658.398
1377.19	662.322
1378.77	667.581
1380.35	658.839
1381.93	666.763
1383.52	640.022
1385.1	662.613
1386.68	645.871
1388.26	666.463
1389.84	659.721
1391.42	656.312
1393	656.904
1394.58	658.162
1396.16	675.42
1397.74	653.345
1399.31	651.936
1400.89	654.528
1402.47	663.119
1404.05	666.378
1405.63	674.969
1407.2	660.227
1408.78	664.819
1410.36	666.077
1411.93	680.002
1413.51	671.26
1415.08	663.851
1416.66	669.776
1418.23	654.368
1419.81	658.292
1421.38	657.551
1422.95	686.142
1424.53	675.4
1426.1	661.992
1427.68	651.916
1429.25	658.508
1430.82	679.766
1432.39	669.691
1433.96	680.949
1435.54	679.541
1437.11	654.799
1438.68	671.39
1440.25	661.315
1441.82	676.573
1443.39	666.498
1444.96	686.423
1446.53	668.348
1448.1	676.272
1449.67	700.197
1451.23	659.455
1452.8	667.38
1454.37	686.638
1455.94	697.23
1457.5	688.488
1459.07	658.413
1460.64	689.004
1462.21	672.262
1463.77	687.521
1465.34	688.112
1466.9	685.37
1468.47	671.295
1470.03	671.22
1471.6	670.478
1473.16	678.403
1474.72	654.994
1476.29	667.586
1477.85	674.177
1479.42	668.102
1480.98	670.693
1482.54	644.618
1484.1	651.876
1485.66	673.801
1487.23	677.726
1488.79	664.984
1490.35	665.576
1491.91	665.5
1493.47	662.092
1495.03	658.017
1496.59	669.942
1498.15	672.533
1499.71	667.791
1501.27	673.716
1502.83	697.641
1504.39	700.232
1505.94	700.824
1507.5	704.749
1509.06	700.007
1510.62	707.932
1512.17	710.523
1513.73	729.115
1515.29	769.706
1516.84	758.297
1518.4	798.889
1519.95	797.481
1521.51	846.072
1523.06	852.663
1524.62	869.255
1526.17	866.513
1527.72	871.771
1529.28	880.363
1530.83	854.287
1532.38	856.212
1533.94	820.804
1535.49	779.395
1537.04	757.987
1538.59	732.578
1540.15	731.17
1541.7	731.761
1543.25	715.019
1544.8	700.278
1546.35	700.202
1547.9	691.461
1549.45	700.052
1551	695.31
1552.55	669.902
1554.1	668.493
1555.65	685.751
1557.19	702.343
1558.74	680.268
1560.29	688.859
1561.84	683.451
1563.38	672.042
1564.93	662.633
1566.48	677.892
1568.02	681.15
1569.57	681.741
1571.12	688.333
1572.66	670.924
1574.2	676.849
1575.75	666.107
1577.3	676.032
1578.84	677.29
1580.38	672.548
1581.93	685.14
1583.47	664.398
1585.01	682.323
1586.56	668.914
1588.1	680.172
1589.64	668.764
1591.18	660.022
1592.72	666.613
1594.27	675.205
1595.81	675.13
1597.35	673.721
1598.89	684.313
1600.43	682.904
1601.97	684.162
1603.51	680.754
1605.05	670.012
1606.59	694.453
1608.12	672.718
1609.66	679.7
1611.2	675.287
1612.74	679.377
1614.27	666.519
1615.81	675.382
1617.35	685.926
1618.89	655.206
1620.42	676.891
1621.96	649.419
1623.5	674.242
1625.03	672.631
1626.57	673.304
1628.1	670.969
1629.63	673.359
1631.17	658.75
1632.7	668.838
1634.24	668.067
1635.77	670.169
1637.3	672.774
1638.84	659.931
1640.37	676.222
1641.9	686.057
1643.43	673.185
1644.97	669.896
1646.5	665.61
1648.03	670.412
1649.56	666.191
1651.09	669.054
1652.62	680.561
1654.15	669.598
1655.68	680.523
1657.21	675.186
1658.74	671.293
1660.27	659.721
1661.79	673.13
1663.32	665.425
1664.85	679.662
1666.38	670.977
1667.91	679.355
1669.43	683.796
1670.96	678.069
1672.49	679.156
1674.01	671.113
1675.54	675.388
1677.06	672.741
1678.59	671.053
1680.11	664.007
1681.64	668.058
1683.16	672.207
1684.69	673.085
1686.21	683.444
1687.73	675.747
1689.26	672.724
1690.78	658.495
1692.3	668.392
1693.83	671.884
1695.35	670.96
1696.87	670.027
1698.39	675.322
1699.91	675.697
1701.43	667.092
1702.96	669.404
1704.48	683.047
1706	671.343
1707.52	661.369
1709.04	663.948
1710.55	655.695
1712.07	683.153
1713.59	657.197
1715.11	667.463
1716.63	649.069
1718.15	655.498
1719.66	674.678
1721.18	666.708
1722.7	656.193
1724.21	650.993
1725.73	672.761
1727.25	656.964
1728.76	647.027
1730.28	640.411
1731.8	650.577
1733.31	650.84
1734.82	660.054
1736.34	647.242
1737.85	664.146
1739.37	646.47
1740.88	652.182
1742.39	645.87
1743.91	650.371
1745.42	659.01
1746.93	653.22
1748.45	648.304
1749.96	658.147
1751.47	649.087
1752.98	653.692
1754.49	636.344
1756	643.49
1757.51	661.047
1757.73	663.733
1759.25	658.354
1760.77	653.643
1762.28	636.932
1763.8	658.887
1765.31	648.842
1766.83	656.131
1768.34	660.086
1769.86	650.042
1771.37	663.33
1772.89	633.285
1774.4	648.574
1775.92	651.863
1777.43	643.151
1778.94	647.773
1780.46	654.395
1781.97	649.017
1783.48	658.973
1784.99	646.928
1786.51	651.55
1788.02	664.172
1789.53	636.794
1791.04	652.082
1792.55	649.371
1794.06	651.326
1795.57	647.282
1797.08	661.904
1798.59	640.526
1800.1	651.148
1801.61	659.769
1803.12	655.725
1804.63	673.013
1806.13	668.969
1807.64	669.591
1809.15	659.546
1810.66	655.501
1812.16	666.123
1813.67	656.078
1815.18	665.367
1816.68	657.989
1818.19	655.944
1819.7	641.9
1821.2	648.522
1822.71	651.144
1824.21	664.432
1825.72	657.721
1827.22	651.01
1828.72	670.965
1830.23	659.587
1831.73	653.542
1833.23	638.831
1834.74	658.786
1836.24	668.741
1837.74	658.697
1839.24	673.318
1840.75	649.274
1842.25	653.229
1843.75	651.184
1845.25	665.14
1846.75	655.095
1848.25	653.05
1849.75	672.339
1851.25	655.628
1852.75	650.916
1854.25	654.871
1855.75	646.16
1857.25	646.782
1858.75	663.404
1860.24	655.359
1861.74	649.981
1863.24	677.937
1864.74	663.892
1866.23	621.181
1867.73	639.802
1869.23	660.424
1870.72	669.713
1872.22	659.668
1873.71	650.29
1875.21	656.246
1876.7	662.201
1878.2	658.156
1879.69	660.112
1881.19	646.734
1882.68	661.355
1884.18	661.311
1885.67	655.933
1887.16	643.888
1888.66	643.843
1890.15	645.132
1891.64	643.754
1893.13	651.043
1894.62	661.664
1896.11	657.62
1897.61	650.242
1899.1	664.197
1900.59	657.486
1902.08	663.441
1903.57	649.396
1905.06	649.352
1906.55	661.974
1908.04	662.596
1909.53	647.217
1911.02	641.173
1912.5	670.461
1913.99	668.417
1915.48	638.372
1916.97	657.661
1918.46	655.616
1919.94	658.904
1921.43	637.526
1922.92	644.815
1924.4	661.437
1925.89	658.059
1927.37	673.348
1928.86	668.636
1930.34	675.258
1931.83	647.214
1933.31	656.502
1934.8	673.791
1936.28	665.079
1937.77	660.368
1939.25	644.99
1940.73	655.612
1942.22	658.234
1943.7	657.523
1945.18	656.145
1946.66	656.766
1948.14	652.055
1949.63	673.344
1951.11	654.632
1952.59	658.588
1954.07	661.21
1955.55	652.498
1957.03	649.787
1958.51	652.409
1959.99	652.364
1961.47	640.986
1962.95	650.275
1964.43	648.23
1965.91	665.519
1967.39	646.807
1968.86	659.429
1970.34	664.051
1971.82	664.007
1973.3	613.962
1974.77	657.917
1976.25	654.539
1977.73	649.828
1979.2	651.783
1980.68	661.738
1982.15	663.027
1983.63	636.316
1985.1	652.938
1986.58	646.893
1988.05	642.182
1989.53	649.47
1991	650.759
1992.47	652.714
1993.95	650.669
1995.42	635.958
1996.89	623.247
1998.37	661.869
1999.84	643.157
2001.31	626.446
2002.78	656.401
2004.25	647.69
2005.73	662.312
2007.2	654.934
2008.67	638.889
2010.14	662.178
2011.61	656.133
2013.08	656.755
2014.55	647.377
2016.02	653.332
2017.49	635.287
2018.96	651.243
2020.42	651.865
2021.89	659.82
2023.36	649.775
2024.83	659.731
2026.3	640.352
2027.76	648.974
2029.23	662.263
2030.7	642.885
2032.16	658.84
2033.63	656.129
2035.09	652.751
2036.56	658.04
2038.03	653.328
2039.49	657.95
2040.96	650.572
2042.42	648.527
2043.88	630.483
2045.35	633.105
2046.81	621.06
2048.28	628.349
2049.74	664.971
2051.2	657.593
2052.67	648.214
2054.13	655.503
2055.59	644.125
2057.05	632.747
2058.51	648.702
2059.97	638.658
2061.43	625.946
2062.9	645.902
2064.36	637.857
2065.82	632.479
2067.28	650.434
2068.74	645.723
2070.2	649.678
2071.65	646.967
2073.11	657.589
2074.57	638.877
2076.03	636.833
2077.49	634.788
2078.95	650.077
2080.4	642.032
2081.86	649.987
2083.32	623.942
2084.78	631.898
2086.23	645.853
2087.69	645.142
2089.15	611.764
2090.6	637.052
2092.05	651.674
2093.51	617.63
2094.97	634.251
2096.42	645.54
2097.87	642.829
2099.33	630.117
2100.78	648.073
2102.24	647.361
2103.69	632.65
2105.14	628.605
2106.6	617.227
2108.05	631.849
2109.5	625.138
2110.95	613.76
2112.4	630.382
2113.86	641.67
2115.31	656.959
2116.76	624.248
2118.21	618.87
2119.66	642.158
2121.11	626.78
2122.56	642.735
2124.01	621.357
2125.46	626.646
2126.91	634.601
2128.35	637.223
2129.8	652.512
2131.25	637.134
2132.7	634.422
2134.15	605.044
2135.59	609
2137.04	632.288
2138.49	631.577
2139.94	642.199
2141.38	644.821
2142.83	621.443
2144.27	640.065
2145.72	629.354
2147.16	613.975
2148.61	637.931
2150.05	625.219
2151.5	635.841
2152.94	623.13
2154.39	634.419
2155.83	627.707
2157.27	619.663
2158.72	621.618
2160.16	635.573
2161.6	640.862
2163.05	636.15
2164.49	633.439
2165.93	638.061
2167.37	618.683
2168.81	619.972
2170.26	639.26
2171.7	633.882
2173.14	627.171
2174.58	649.793
2176.02	616.415
2177.46	616.37
2178.9	628.325
2180.34	619.614
2181.77	627.569
2183.21	633.525
2184.65	636.146
2186.09	645.435
2187.53	649.39
2188.97	622.679
2190.4	627.968
2191.84	625.923
2193.28	620.545
2194.71	617.834
2196.15	611.122
2197.59	640.411
2199.02	626.366
2200.46	632.321
2201.89	620.277
2203.33	628.232
2204.76	618.187
2206.2	637.476
2207.63	621.431
2209.07	604.72
2210.5	601.342
2211.93	621.297
2213.37	601.252
2214.8	619.874
2216.23	619.163
2217.67	647.785
2219.1	600.407
2220.53	608.362
2221.96	612.318
2223.39	596.94
2224.82	604.228
2226.26	603.517
2227.69	602.805
2229.12	605.427
2230.55	592.716
2231.98	599.338
2233.41	615.96
2234.84	623.249
2236.26	607.204
2237.69	591.826
2239.12	613.781
2240.55	593.736
2241.98	613.025
2243.41	601.647
2244.83	608.269
2246.26	610.224
2247.69	576.846
2249.11	606.135
2250.54	582.757
2251.97	598.045
2253.39	599.334
2254.82	578.623
2256.24	605.911
2257.67	582.533
2259.09	598.489
2260.52	591.111
2261.94	602.399
2263.37	604.354
2264.79	590.976
2266.22	604.265
2267.64	586.22
2269.06	579.509
2270.49	586.798
2271.91	614.753
2273.33	591.375
2274.75	599.997
2276.18	598.619
2277.59	606.574
2279.02	583.863
2280.44	571.151
2281.86	593.773
2283.28	587.062
2284.7	621.017
2286.12	606.973
2287.54	601.595
2288.96	588.216
2290.38	600.172
2291.8	589.46
2293.22	598.082
2294.63	598.704
2296.05	599.993
2297.47	590.615
2298.89	589.237
2300.31	606.525
2301.72	591.814
2303.14	603.103
2304.56	597.725
2305.97	606.347
2307.39	593.635
2308.81	615.591
2310.22	593.546
2311.64	594.168
2313.05	588.123
2314.47	596.745
2315.88	584.034
2317.3	572.656
2318.71	583.944
2320.12	594.566
2321.54	585.855
2322.95	590.477
2324.36	596.432
2325.78	605.721
2327.19	607.009
2328.6	606.298
2330.01	592.92
2331.43	596.209
2332.84	599.497
2334.25	605.453
2335.66	586.741
2337.07	588.03
2338.48	588.652
2339.89	579.941
2341.3	568.562
2342.71	607.184
2344.12	571.806
2345.53	598.428
2346.94	613.05
2348.35	593.006
2349.76	596.294
2351.17	585.583
2352.57	598.871
2353.98	592.16
2355.39	584.782
2356.8	579.404
2358.2	590.026
2359.61	594.648
2361.02	591.27
2362.42	569.225
2363.83	576.514
2365.23	581.802
2366.64	573.091
2368.04	569.713
2369.45	571.668
2370.85	585.624
2372.26	586.246
2373.66	596.201
2375.07	572.156
2376.47	578.778
2377.87	574.733
2379.28	569.355
2380.68	565.977
2382.08	587.933
2383.49	565.888
2384.89	591.177
2386.29	567.799
2387.69	570.421
2389.09	559.043
2390.49	555.664
2391.9	574.286
2393.3	572.242
2394.7	570.864
2396.1	564.819
2397.5	566.774
2398.9	564.063
2400.29	576.685
2401.69	575.974
2403.09	581.262
2404.49	557.884
2405.89	580.506
2407.29	577.128
2408.69	567.083
2410.08	574.372
2411.48	552.327
2412.88	555.616
2414.28	574.238
2415.67	566.193
2417.07	566.148
2418.47	562.77
2419.86	558.059
2421.26	564.014
2422.65	579.97
2424.05	556.592
2425.44	581.214
2426.84	567.836
2428.23	560.458
2429.62	557.746
2431.02	577.035
2432.41	572.99
2433.81	593.612
2435.2	554.901
2436.59	564.189
2437.98	548.811
2439.38	550.767
2440.77	567.389
2442.16	586.677
2443.55	570.632
2444.94	585.921
2446.34	580.543
2447.73	570.498
2449.12	573.12
2450.51	559.742
2451.9	587.031
2453.29	566.986
2454.68	579.608
2456.07	550.897
2457.46	572.185
2458.84	588.807
2460.23	563.429
2461.62	588.718
2463.01	584.007
2464.4	594.629
2465.78	571.917
2467.17	565.872
2468.56	577.828
2469.95	586.45
2471.33	583.072
2472.72	575.694
2474.1	579.649
2475.49	578.271
2476.88	573.56
2478.26	574.848
2479.65	584.803
2481.03	575.425
2482.42	578.714
2483.8	568.669
2485.19	603.958
2486.57	575.913
2487.95	587.869
2489.34	582.491
2490.72	569.779
2492.1	575.734
2493.49	586.356
2494.87	580.978
2496.25	567.6
2497.63	598.222
2499.01	568.844
2500.39	594.8
2501.77	576.755
2503.16	572.71
2504.54	561.332
2505.92	586.621
2507.3	573.909
2508.68	568.531
2510.06	580.487
2511.44	568.442
2512.81	582.397
2514.19	566.353
2515.57	586.974
2516.95	574.263
2518.33	568.885
2519.71	582.174
2521.08	586.796
2522.46	567.418
2523.84	558.706
2525.22	570.662
2526.59	568.617
2527.97	568.572
2529.35	563.194
2530.72	578.483
2532.1	562.438
2533.47	567.06
2534.85	580.349
2536.22	557.637
2537.6	559.593
2538.97	564.881
2540.35	559.503
2541.72	559.458
2543.09	566.08
2544.47	560.702
2545.84	567.324
2547.21	553.28
2548.59	553.235
2549.96	565.857
2551.33	572.479
2552.7	551.101
2554.08	567.723
2555.45	582.345
2556.82	552.967
2558.19	563.589
2559.56	566.211
2560.93	571.499
2562.3	566.788
2563.67	551.41
2565.04	569.365
2566.41	555.32
2567.78	561.276
2569.15	559.898
2570.52	558.52
2571.89	559.142
2573.25	566.43
2574.62	568.386
2575.99	557.008
2577.36	551.63
2578.73	573.585
2580.09	571.54
2581.46	562.162
2582.83	571.451
2584.19	558.073
2585.56	581.361
2586.93	571.317
2588.29	558.605
2589.66	573.894
2591.02	553.182
2592.39	573.138
2593.75	573.76
2595.12	583.048
2596.48	575.004
2597.84	577.626
2599.21	562.914
2600.57	572.87
2601.93	569.492
2603.3	568.114
2604.66	580.069
2606.02	574.024
2607.39	587.979
2608.75	585.268
2610.11	568.557
2611.47	579.179
2612.83	575.801
2614.19	571.756
2615.55	577.711
2616.91	594.333
2618.27	572.288
2619.63	572.244
2620.99	582.199
2622.35	569.488
2623.71	571.443
2625.07	562.732
2626.43	578.687
2627.79	581.309
2629.15	575.931
2630.51	563.886
2631.86	569.175
2633.22	576.463
2634.58	581.085
2635.94	580.374
2637.29	570.329
2638.65	578.951
2640.01	562.24
2641.36	573.528
2642.72	569.484
2644.08	554.772
2645.43	540.728
2646.79	552.016
2648.14	579.972
2649.49	572.927
2650.85	565.216
2652.2	568.504
2653.56	572.459
2654.91	559.081
2656.26	562.37
2657.62	578.992
2658.97	560.947
2660.32	575.569
2661.68	595.525
2663.03	566.146
2664.38	542.102
2665.73	571.39
2667.09	567.346
2668.44	582.634
2669.79	570.59
2671.14	575.878
2672.49	575.167
2673.84	573.122
2675.19	577.744
2676.54	577.033
2677.89	562.321
2679.24	578.943
2680.59	572.232
2681.94	569.521
2683.29	573.476
2684.63	572.098
2685.98	568.053
2687.33	553.342
2688.68	577.964
2690.03	553.919
2691.37	567.874
2692.72	550.496
2694.07	573.118
2695.41	577.074
2696.76	567.696
2698.11	557.651
2699.45	560.94
2700.8	556.895
2702.14	569.517
2703.49	582.139
2704.83	576.094
2706.18	580.049
2707.52	565.338
2708.87	561.293
2710.21	555.249
2711.55	553.871
2712.9	558.492
2714.24	568.448
2715.58	571.736
2716.93	556.358
2718.27	550.314
2719.61	562.269
2720.95	562.891
2722.3	577.513
2723.64	570.802
2724.98	561.424
2726.32	573.379
2727.66	554.001
2729	565.289
2730.34	558.578
2731.68	569.867
2733.02	569.822
2734.36	537.111
2735.7	575.066
2737.04	553.688
2738.38	570.976
2739.72	572.265
2741.06	564.22
2742.39	546.176
2743.73	567.464
2745.07	576.753
2746.41	551.375
2747.74	574.664
2749.08	575.286
2750.42	569.241
2751.75	568.529
2753.09	564.485
2754.43	569.107
2755.76	555.062
2757.1	563.017
2758.43	576.973
2759.77	576.261
2761.1	582.883
2762.44	579.505
2763.77	572.794
2765.11	570.749
2766.44	570.038
2767.78	576.66
2769.11	535.282
2770.44	554.57
2771.78	547.859
2773.11	573.814
2774.44	564.436
2775.77	567.058
2777.11	549.68
2778.44	572.969
2779.77	565.591
2781.1	551.546
2782.43	564.835
2783.76	562.123
2785.09	569.412
2786.42	576.7
2787.76	566.656
2789.08	574.611
2790.41	582.566
2791.74	569.188
2793.07	574.477
2794.4	577.766
2795.73	576.388
2797.06	554.343
2798.39	555.631
2799.72	568.253
2801.04	575.542
2802.37	566.164
2803.7	572.119
2805.03	581.408
2806.35	568.03
2807.68	561.319
2809.01	567.274
2810.33	569.896
2811.66	573.851
2812.98	561.14
2814.31	560.428
2815.63	549.05
2816.96	573.006
2818.28	562.294
2819.61	579.583
2820.94	583.538
2822.26	567.493
2823.58	570.115
2824.91	561.404
2826.23	573.359
2827.55	570.648
2828.88	581.937
2830.2	575.225
2831.52	569.847
2832.84	577.802
2834.16	566.424
2835.49	570.38
2836.81	579.002
2838.13	567.624
2839.45	576.246
2840.77	574.868
2842.09	570.823
2843.41	586.112
2844.73	574.067
2846.05	578.022
2847.37	569.311
2848.69	577.933
2850.01	564.555
2851.33	583.177
2852.65	575.799
2853.97	573.754
2855.29	591.709
2856.6	580.331
2857.92	582.286
2859.24	593.575
2860.56	594.864
2861.87	588.152
2863.19	586.108
2864.51	599.396
2865.82	598.685
2867.14	600.64
2868.46	579.262
2869.77	582.551
2871.09	595.173
2872.4	600.461
2873.72	590.417
2875.03	613.705
2876.35	588.994
2877.66	620.949
2878.98	606.905
2880.29	610.193
2881.6	591.482
2882.92	604.104
2884.23	588.059
2885.54	626.681
2886.86	627.303
2888.17	619.258
2889.48	618.547
2890.79	630.502
2892.1	619.791
2893.42	632.413
2894.73	619.701
2896.04	622.99
2897.35	637.612
2898.66	639.567
2899.97	644.856
2901.28	641.478
2902.59	637.433
2903.9	627.388
2905.21	640.677
2906.52	625.966
2907.83	658.588
2909.14	623.876
2910.45	628.498
2911.76	625.12
2913.06	638.409
2914.37	635.031
2915.68	631.653
2916.99	646.941
2918.29	647.563
2919.6	642.185
2920.91	640.807
2922.21	640.763
2923.52	635.385
2924.83	644.673
2926.13	641.962
2927.44	649.25
2928.74	645.872
2930.05	633.828
2931.35	632.45
2932.66	649.738
2933.96	657.027
2935.27	652.982
2936.57	643.604
2937.88	652.226
2939.18	652.182
2940.48	658.137
2941.79	658.092
2943.09	658.714
2944.39	652.003
2945.69	643.958
2946.99	644.58
2948.3	647.202
2949.6	662.491
2950.9	655.112
2952.2	651.734
2953.5	656.356
2954.8	643.645
2956.1	647.6
2957.4	636.222
2958.7	645.511
2960	647.466
2961.3	636.088
2962.6	613.377
2963.9	621.999
2965.2	614.621
2966.5	620.576
2967.8	615.198
2969.1	615.82
2970.4	594.442
2971.69	609.064
2972.99	617.686
2974.29	607.641
2975.59	617.596
2976.88	620.218
2978.18	600.174
2979.48	624.129
2980.77	608.084
2982.07	596.04
2983.36	601.995
2984.66	605.284
2985.95	619.906
2987.25	609.194
2988.55	601.816
2989.84	603.105
2991.13	589.727
2992.43	595.015
2993.72	594.971
2995.02	591.593
2996.31	602.215
2997.6	594.837
2998.9	588.125
3000.19	584.081
3001.48	588.702
3002.77	589.324
3004.07	588.613
3005.36	587.235
3006.65	582.524
3007.94	580.479
3009.23	581.101
3010.53	555.056
3011.82	594.345
3013.11	574.3
3014.4	564.922
3015.69	568.877
3016.98	576.166
3018.27	570.788
3019.56	578.077
3020.85	576.032
3022.13	578.654
3023.42	574.609
3024.71	571.231
3026	555.186
3027.29	560.475
3028.58	571.097
3029.86	585.719
3031.15	575.674
3032.44	561.63
3033.73	557.585
3035.01	584.207
3036.3	580.829
3037.58	579.451
3038.87	571.406
3040.16	572.695
3041.44	577.983
3042.73	568.605
3044.01	587.227
3045.3	581.849
3046.58	579.805
3047.87	575.76
