#Acq. time (s)=	20
#Accumulations=	8
#Range (cm-¹)=	50...4000
#Windows=	3
#Autofocus=	Off
#AutoExposure=	Off
#Spike filter=	Multiple accum.
#Delay time (s)=	0
#Binning=	1
#Readout mode=	Signal
#DeNoise=	Off
#ICS correction=	Off
#Dark correction=	Off
#Inst. Process=	Off
#Instrument=	LabRAM HR Evol
#Detector=	Syncerity OE
#Objective=	x100_VIS
#Grating=	600 (500nm)
#ND Filter=	5%
#Laser=	532nm_Edge
#Hole=	100.021
#Range=	Visible
#Project=	Omar
#Sample=	120523
#Site=	ap
#Title=	mz
#Remark=	5 laser intensity
#Date=	12.05.2023 17:01
#Acquired=	12.05.2023 17:01:16
51.0297	26.5714
52.8754	31.6332
54.7185	34.6951
56.5635	36.8997
58.406	52.8187
60.2502	80.4519
62.0919	110.085
63.9355	145.147
65.7765	178.78
67.6193	214.128
69.4595	257.761
71.3016	300.251
73.1412	363.885
74.9825	413.232
76.8214	442.294
78.662	473.927
80.5001	496.132
82.34	524.051
84.1774	563.684
86.0166	568.746
87.8532	578.379
89.6917	601.727
91.5276	601.36
93.3632	598.707
95.2006	585.483
97.0355	587.974
98.8721	593.321
100.706	593.526
102.54	600.588
104.376	601.078
106.209	608.711
108.041	608.345
109.876	612.549
111.708	601.04
113.542	615.244
115.373	599.163
117.204	616.225
119.036	612.716
120.867	605.492
122.697	606.839
124.526	602.472
126.357	603.249
128.186	602.596
130.014	595.372
131.845	600.72
133.672	599.782
135.5	616.843
137.327	610.762
139.155	613.253
140.982	616.314
142.807	609.091
144.633	614.438
146.46	619.5
148.285	622.562
150.11	619.624
151.934	615.542
153.757	630.89
155.583	609.666
157.406	609.585
159.229	606.647
161.051	622.566
162.873	621.342
164.697	611.832
166.518	614.037
168.339	625.099
170.159	614.732
171.98	619.222
173.799	603.427
175.619	613.632
177.44	612.122
179.259	613.184
181.077	616.246
182.895	620.45
184.713	600.084
186.53	620.288
188.347	615.922
190.164	610.126
191.98	609.474
193.796	616.25
195.612	595.883
197.427	615.231
199.242	605.15
201.059	603.069
202.873	609.559
204.686	601.764
206.5	606.254
208.313	610.459
210.126	600.378
211.938	602.582
213.75	604.215
215.562	600.42
217.373	602.625
219.184	592.83
220.993	587.606
222.803	591.239
224.613	599.444
226.422	580.505
228.232	592.996
230.04	587.2
231.849	590.262
233.657	597.324
235.465	575.529
237.272	582.305
239.079	583.938
240.886	589.857
242.693	574.633
244.497	591.409
246.302	578.471
248.108	590.676
249.913	596.88
251.717	578.228
253.521	587.004
255.325	595.494
257.127	585.413
258.93	585.618
260.733	590.68
262.535	578.599
264.338	579.661
266.137	580.151
267.939	579.784
269.74	589.703
271.541	579.908
273.341	583.541
275.139	574.603
276.939	581.95
278.738	577.584
280.537	574.36
282.334	559.707
284.132	578.769
285.93	574.117
287.728	565.178
289.523	576.812
291.32	584.159
293.117	574.649
294.911	572.283
296.707	576.773
298.502	578.121
300.295	572.611
302.09	566.816
303.885	578.163
305.677	576.368
307.47	574.858
309.264	588.777
311.055	591.553
312.848	598.329
314.64	582.82
316.43	591.882
318.222	599.801
320.011	578.005
321.802	579.353
323.593	600.129
325.381	597.191
327.171	591.395
328.958	600.172
330.748	581.805
332.535	596.009
334.323	595.928
336.109	603.847
337.897	588.338
339.685	589.685
341.47	587.604
343.257	577.809
345.041	597.442
346.827	583.932
348.611	593.566
350.397	588.628
352.18	567.689
353.962	579.322
355.747	586.956
357.529	584.589
359.312	587.365
361.094	591.855
362.877	582.632
364.658	599.122
366.44	585.041
368.22	597.246
369.999	597.736
371.781	594.512
373.56	595.86
375.34	604.921
377.119	599.698
378.896	596.188
380.676	600.964
382.453	592.883
384.23	602.23
386.009	613.292
387.785	609.211
389.561	613.416
391.338	605.049
393.113	594.397
394.888	593.173
396.665	600.235
398.439	601.868
400.213	596.93
401.988	610.563
403.761	594.482
405.534	601.829
407.306	614.034
409.081	605.382
410.852	594.443
412.624	613.791
414.395	615.424
416.167	612.772
417.938	607.833
419.708	623.752
421.477	617.386
423.249	606.162
425.018	608.366
426.786	616
428.555	599.061
430.323	599.838
432.092	604.042
433.86	600.818
435.627	603.309
437.393	600.942
439.16	609.432
440.926	601.066
442.691	595.556
444.458	608.046
446.223	612.822
447.988	606.17
449.752	606.66
451.516	626.865
453.28	615.07
455.043	616.132
456.806	626.336
458.568	619.112
460.33	620.174
462.092	622.664
463.854	618.869
465.615	620.217
467.378	616.707
469.138	631.483
470.899	635.688
472.658	624.75
474.418	622.954
476.177	611.445
477.936	618.506
479.694	613.283
481.452	624.344
483.21	619.692
484.966	622.754
486.723	624.387
488.48	620.02
490.236	620.796
491.992	614.715
493.748	623.491
495.503	621.125
497.258	631.615
499.013	624.391
500.768	618.024
502.522	635.086
504.276	639.005
506.029	615.781
507.78	625.414
509.533	611.333
511.285	619.538
513.037	627.457
514.789	631.376
516.54	635.581
518.289	639.5
520.04	620.276
521.791	641.337
523.541	648.114
525.29	660.604
527.04	631.38
528.787	636.442
530.536	622.646
532.284	641.137
534.032	620.484
535.778	631.832
537.525	635.465
539.272	624.527
541.019	644.16
542.763	629.793
544.509	642.57
546.255	648.203
548	644.979
549.743	638.041
551.488	626.531
553.232	643.021
554.974	636.369
556.718	632.574
558.462	651.35
560.203	639.554
561.945	654.045
563.688	624.535
565.428	626.168
567.169	642.373
568.911	638.578
570.65	626.497
572.391	637.559
574.129	638.049
575.869	631.111
577.609	637.03
579.346	636.949
581.085	642.01
582.822	643.358
584.56	643.848
586.296	636.91
588.034	642.829
589.771	643.034
591.506	655.238
593.243	660.015
594.978	643.076
596.714	646.71
598.447	644.914
600.183	642.547
601.916	652.181
603.651	637.814
605.383	641.447
607.117	647.652
608.849	652.999
610.582	649.776
612.313	658.552
614.044	664.185
615.776	658.104
617.507	662.308
619.238	667.37
620.968	660.432
622.699	664.065
624.428	659.127
626.156	669.903
627.886	676.679
629.614	694.884
631.342	675.374
633.071	672.151
634.797	660.069
636.526	670.274
638.252	668.765
639.978	654.112
641.705	663.46
643.431	655.093
645.155	653.869
646.88	666.931
648.606	655.421
650.33	662.197
652.053	653.259
653.779	656.607
655.502	656.526
657.224	661.016
658.946	662.078
660.67	649.425
662.392	649.63
664.113	677.549
665.834	670.325
667.556	650.244
669.277	646.449
670.997	662.367
672.716	659.144
674.435	661.92
676.156	661.267
677.875	661.472
679.593	652.534
681.311	675.596
683.029	649.229
684.746	658.005
686.465	660.209
688.182	657.843
689.898	653.476
691.614	655.395
693.33	657.885
695.045	658.09
696.76	659.152
698.475	673.357
700.189	673.275
701.904	664.623
703.619	662.542
705.333	668.175
707.046	675.808
708.759	670.299
710.471	666.503
712.183	676.137
713.895	675.484
715.606	668.832
717.317	667.036
719.028	665.813
720.739	664.589
722.449	662.222
724.159	656.141
725.868	671.488
727.578	682.55
729.286	666.183
730.995	668.674
732.703	668.307
734.409	674.512
736.117	669.002
737.824	683.778
739.531	661.983
741.237	683.616
742.944	659.821
744.65	676.883
746.355	659.944
748.061	666.149
749.766	663.211
751.468	672.273
753.173	656.477
754.877	666.111
756.581	686.029
758.284	678.234
759.987	665.582
761.688	678.929
763.39	682.277
765.092	667.053
766.794	672.686
768.496	660.891
770.195	673.953
771.896	676.729
773.596	662.648
775.296	675.424
776.994	674.485
778.694	679.262
780.393	671.466
782.092	690.814
783.788	665.304
785.487	661.223
787.185	675.428
788.882	667.347
790.578	657.551
792.274	672.042
793.971	676.247
795.666	671.308
797.362	676.084
799.057	662.86
800.751	678.208
802.446	671.556
804.138	675.76
805.833	679.965
807.527	675.884
809.219	672.374
810.912	675.722
812.605	687.355
814.296	690.131
815.989	693.479
817.679	684.826
819.371	700.745
821.06	694.378
822.752	702.869
824.441	703.645
826.131	705.564
827.822	698.626
829.51	709.687
831.199	704.178
832.887	704.097
834.576	696.873
836.262	708.506
837.951	708.425
839.637	697.487
841.323	708.834
843.01	705.896
844.695	695.529
846.382	709.448
848.066	706.51
849.753	702.143
851.436	694.92
853.122	701.981
854.805	708.186
856.488	720.391
858.173	711.738
859.855	715.943
861.539	692.148
863.221	684.924
864.902	721.7
866.585	705.047
868.266	712.109
869.946	714.599
871.628	714.233
873.308	705.009
874.987	696.071
876.668	705.99
878.347	700.48
880.026	695.542
881.704	705.461
883.384	685.951
885.061	696.727
886.739	686.36
888.418	681.994
890.094	684.198
891.771	676.974
893.447	678.893
895.122	685.384
896.799	703.874
898.475	688.65
900.149	696.284
901.824	678.202
903.498	694.407
905.174	678.897
906.847	679.959
908.52	681.307
910.193	684.654
911.866	680.573
913.538	688.778
915.212	686.983
916.883	696.044
918.555	691.106
920.226	681.025
921.896	683.516
923.567	694.292
925.237	692.782
926.907	673.273
928.576	683.477
930.245	693.967
931.914	692.172
933.584	693.805
935.253	689.439
936.92	678.5
938.588	697.562
940.255	682.91
941.922	690.257
943.589	705.605
945.255	706.095
946.921	698.014
948.587	705.647
950.252	695.281
951.917	700.343
953.582	716.833
955.244	692.18
956.909	707.242
958.572	712.304
960.236	691.937
961.899	697.856
963.562	707.489
965.225	696.837
966.887	706.185
968.549	708.961
970.211	705.165
971.872	690.798
973.531	691.003
975.192	712.636
976.852	701.127
978.512	703.903
980.172	725.25
981.831	718.884
983.489	713.66
985.148	707.007
986.806	701.212
988.464	721.131
990.122	700.193
991.778	701.826
993.435	708.316
995.092	703.664
996.749	684.726
998.404	711.216
1000.06	712.278
1001.72	711.34
1003.37	711.259
1005.02	746.32
1006.68	732.24
1008.33	727.873
1009.99	711.22
1011.64	723.139
1013.29	715.915
1014.95	714.691
1016.6	700.039
1018.25	717.386
1019.9	712.734
1021.55	709.51
1023.2	718.857
1024.85	701.634
1026.51	714.981
1028.16	714.043
1029.81	714.819
1031.46	719.309
1033.1	710.371
1034.75	711.433
1036.4	712.781
1038.05	712.128
1039.7	701.19
1041.34	716.823
1042.99	709.885
1044.64	723.518
1046.29	707.151
1047.93	713.07
1049.58	722.132
1051.22	731.765
1052.87	743.113
1054.51	738.461
1056.16	740.094
1057.8	740.87
1059.45	727.36
1061.09	730.708
1062.73	731.198
1064.38	727.403
1066.02	731.322
1067.66	742.098
1069.3	748.017
1070.95	732.507
1072.59	749.283
1074.23	742.631
1075.87	735.121
1077.51	726.469
1079.15	736.102
1080.79	732.021
1082.43	746.226
1084.07	735.002
1085.71	743.492
1087.35	742.554
1088.99	733.044
1090.62	731.82
1092.26	730.025
1093.9	738.801
1095.53	730.434
1097.17	728.639
1098.81	742.844
1100.44	735.334
1102.08	722.11
1103.71	732.886
1105.35	733.948
1106.99	730.724
1108.62	728.357
1110.25	721.705
1111.89	729.624
1113.52	712.4
1115.15	729.462
1116.79	718.238
1118.42	731.014
1120.05	734.362
1121.68	727.995
1123.31	740.485
1124.95	721.261
1126.58	738.894
1128.21	742.242
1129.84	748.161
1131.47	740.651
1133.1	721.427
1134.73	738.489
1136.36	740.123
1137.98	733.47
1139.61	736.818
1141.24	744.451
1142.87	745.513
1144.5	739.717
1146.12	749.636
1147.75	770.698
1149.38	762.331
1151	777.679
1152.63	805.312
1154.26	820.374
1155.88	829.721
1157.51	830.212
1159.13	825.845
1160.76	806.621
1162.38	799.683
1164	779.316
1165.63	754.092
1167.25	768.297
1168.87	760.216
1170.49	733.849
1172.12	745.482
1173.74	753.973
1175.36	739.606
1176.98	748.382
1178.6	750.872
1180.22	744.506
1181.84	743.853
1183.46	742.629
1185.08	757.405
1186.7	766.182
1188.32	769.529
1189.94	771.448
1191.56	752.224
1193.18	756.143
1194.79	752.062
1196.41	743.981
1198.03	743.9
1199.64	735.247
1201.26	737.166
1202.88	749.942
1204.49	761.576
1206.11	750.923
1207.72	739.128
1209.34	743.904
1210.95	752.966
1212.57	736.599
1214.18	755.089
1215.8	745.866
1217.41	735.213
1219.02	721.703
1220.64	741.908
1222.25	739.256
1223.86	725.175
1225.47	742.808
1227.08	739.584
1228.69	733.217
1230.3	720.565
1231.92	730.484
1233.53	733.545
1235.14	723.179
1236.75	712.812
1238.35	733.874
1239.96	728.078
1241.57	724.283
1243.18	714.202
1244.79	731.55
1246.4	726.326
1248.01	731.673
1249.61	737.306
1251.22	738.083
1252.82	747.144
1254.43	727.063
1256.04	740.697
1257.64	754.615
1259.25	747.106
1260.85	734.168
1262.46	738.658
1264.06	736.291
1265.67	755.068
1267.27	746.701
1268.87	746.62
1270.48	750.253
1272.08	743.886
1273.68	746.662
1275.28	740.867
1276.89	750.5
1278.49	749.848
1280.09	740.338
1281.69	746.828
1283.29	728.462
1284.89	746.381
1286.49	728.3
1288.09	740.361
1289.69	748.138
1291.29	738.914
1292.89	740.833
1294.49	729.037
1296.09	752.956
1297.68	740.589
1299.28	743.937
1300.88	751.284
1302.48	728.346
1304.07	759.408
1305.67	748.184
1307.26	746.103
1308.86	750.879
1310.46	744.512
1312.05	736.431
1313.65	754.35
1315.24	753.698
1316.84	758.474
1318.43	761.25
1320.02	758.598
1321.62	743.945
1323.21	744.15
1324.8	739.212
1326.39	760.845
1327.99	743.335
1329.58	766.683
1331.17	761.459
1332.76	750.521
1334.35	753.297
1335.94	749.216
1337.53	750.278
1339.12	750.482
1340.71	730.973
1342.3	745.463
1343.89	753.382
1345.48	743.872
1347.07	757.505
1348.65	753.424
1350.24	732.486
1351.83	764.977
1353.42	761.753
1355	745.1
1356.59	760.162
1358.18	754.081
1359.76	741.429
1361.35	747.919
1362.93	755.266
1364.52	755.185
1366.1	749.39
1367.69	758.166
1369.27	758.085
1370.86	727.147
1372.44	747.066
1374.02	768.128
1375.61	731.761
1377.19	737.394
1378.77	763.885
1380.35	751.518
1381.93	753.151
1383.52	740.499
1385.1	747.275
1386.68	735.765
1388.26	761.113
1389.84	743.032
1391.42	752.951
1393	742.87
1394.58	756.503
1396.16	752.707
1397.74	748.912
1399.31	736.831
1400.89	747.893
1402.47	755.526
1404.05	757.731
1405.63	747.078
1407.2	755.569
1408.78	750.916
1410.36	754.264
1411.93	746.183
1413.51	758.673
1415.08	742.878
1416.66	765.654
1418.23	755.573
1419.81	748.063
1421.38	753.696
1422.95	752.187
1424.53	756.963
1426.1	752.31
1427.68	758.801
1429.25	744.72
1430.82	760.067
1432.39	763.129
1433.96	775.334
1435.54	748.681
1437.11	768.6
1438.68	767.948
1440.25	758.152
1441.82	755.786
1443.39	772.847
1444.96	761.338
1446.53	757.828
1448.1	757.747
1449.67	774.809
1451.23	761.871
1452.8	782.933
1454.37	773.994
1455.94	765.913
1457.5	785.832
1459.07	774.037
1460.64	777.385
1462.21	753.303
1463.77	768.08
1465.34	782.856
1466.9	763.917
1468.47	758.694
1470.03	764.327
1471.6	753.96
1473.16	756.45
1474.72	766.369
1476.29	754.288
1477.85	750.207
1479.42	757.841
1480.98	742.902
1482.54	753.964
1484.1	766.74
1485.66	736.945
1487.23	752.007
1488.79	752.211
1490.35	739.845
1491.91	749.192
1493.47	753.397
1495.03	753.887
1496.59	773.235
1498.15	766.868
1499.71	755.358
1501.27	757.277
1502.83	761.482
1504.39	765.687
1505.94	768.748
1507.5	762.667
1509.06	782.301
1510.62	781.363
1512.17	810.424
1513.73	814.343
1515.29	836.548
1516.84	836.753
1518.4	850.672
1519.95	857.162
1521.51	877.938
1523.06	872.714
1524.62	888.347
1526.17	904.838
1527.72	907.614
1529.28	921.533
1530.83	883.737
1532.38	891.085
1533.94	866.433
1535.49	850.637
1537.04	806.842
1538.59	815.332
1540.15	802.108
1541.7	796.027
1543.25	808.803
1544.8	794.151
1546.35	786.641
1547.9	778.846
1549.45	791.908
1551	776.398
1552.55	776.031
1554.1	762.808
1555.65	773.584
1557.19	783.503
1558.74	775.136
1560.29	762.483
1561.84	765.259
1563.38	756.035
1564.93	774.24
1566.48	762.731
1568.02	774.935
1569.57	767.997
1571.12	754.773
1572.66	765.835
1574.2	775.754
1575.75	765.101
1577.3	754.449
1578.84	781.511
1580.38	763.144
1581.93	760.206
1583.47	769.839
1585.01	762.901
1586.56	748.82
1588.1	757.31
1589.64	761.801
1591.18	767.719
1592.72	761.638
1594.27	774.986
1595.81	762.619
1597.35	756.253
1598.89	765.6
1600.43	748.662
1601.97	768.867
1603.51	769.643
1605.05	770.133
1606.59	776.216
1608.12	772.676
1609.66	752.329
1611.2	761.465
1612.74	761.661
1614.27	771.515
1615.81	750.431
1617.35	756.71
1618.89	749.271
1620.42	747.77
1621.96	743.267
1623.5	761.088
1625.03	758.449
1626.57	765.244
1628.1	743.954
1629.63	768.975
1631.17	765.392
1632.7	757.276
1634.24	756.353
1635.77	743.145
1637.3	770.018
1638.84	761.845
1640.37	766.657
1641.9	757.727
1643.43	750.391
1644.97	763.118
1646.5	754.768
1648.03	756.201
1649.56	768.936
1651.09	760.167
1652.62	761.834
1654.15	770.742
1655.68	771.536
1657.21	765.89
1658.74	763.532
1660.27	755.449
1661.79	769.836
1663.32	765.577
1664.85	768.287
1666.38	758.667
1667.91	770.325
1669.43	762.54
1670.96	766.425
1672.49	768.165
1674.01	767.915
1675.54	761.583
1677.06	762.183
1678.59	759.744
1680.11	764.372
1681.64	768.174
1683.16	766.935
1684.69	765.502
1686.21	765.862
1687.73	757.556
1689.26	760.971
1690.78	758.865
1692.3	750.237
1693.83	758.756
1695.35	748.548
1696.87	751.063
1698.39	760.615
1699.91	753.04
1701.43	760.226
1702.96	751.927
1704.48	756.603
1706	751.607
1707.52	754.795
1709.04	744.423
1710.55	749.948
1712.07	752.246
1713.59	757.369
1715.11	750.581
1716.63	745.487
1718.15	746.869
1719.66	753.764
1721.18	743.921
1722.7	747.058
1724.21	751.214
1725.73	747.818
1727.25	742.108
1728.76	743.42
1730.28	745.412
1731.8	739.033
1733.31	738.171
1734.82	742.385
1736.34	737.018
1737.85	724.687
1739.37	725.479
1740.88	738.141
1742.39	741.185
1743.91	732.26
1745.42	732.218
1746.93	729.941
1748.45	737.335
1749.96	733.455
1751.47	739.451
1752.98	739.951
1754.49	722.946
1756	729.661
1757.51	738.359
1757.73	739.587
1759.25	736.144
1760.77	724.702
1762.28	745.26
1763.8	730.675
1765.31	731.804
1766.83	739.505
1768.34	750.634
1769.86	728.049
1771.37	726.892
1772.89	732.593
1774.4	742.865
1775.92	737.994
1777.43	743.98
1778.94	749.395
1780.46	743.953
1781.97	747.082
1783.48	735.354
1784.99	733.34
1786.51	744.184
1788.02	738.456
1789.53	738.156
1791.04	741.571
1792.55	721.272
1794.06	728.687
1795.57	738.102
1797.08	754.945
1798.59	741.789
1800.1	732.061
1801.61	750.047
1803.12	730.605
1804.63	751.163
1806.13	738.292
1807.64	753.135
1809.15	743.122
1810.66	751.965
1812.16	751.98
1813.67	742.28
1815.18	725.152
1816.68	764.881
1818.19	744.038
1819.7	744.91
1821.2	746.068
1822.71	745.511
1824.21	763.811
1825.72	725.826
1827.22	746.698
1828.72	723.855
1830.23	726.727
1831.73	741.028
1833.23	738.185
1834.74	731.628
1836.24	734.5
1837.74	737.372
1839.24	735.672
1840.75	743.973
1842.25	740.559
1843.75	730.288
1845.25	742.588
1846.75	724.317
1848.25	735.475
1849.75	740.061
1851.25	751.219
1852.75	747.233
1854.25	730.962
1855.75	736.406
1857.25	737.277
1858.75	722.149
1860.24	743.592
1861.74	732.179
1863.24	746.193
1864.74	725.351
1866.23	729.651
1867.73	739.951
1869.23	736.823
1870.72	747.981
1872.22	737.71
1873.71	736.01
1875.21	744.311
1876.7	742.325
1878.2	746.054
1879.69	736.64
1881.19	753.512
1882.68	730.956
1884.18	734.399
1885.67	737.842
1887.16	744.428
1888.66	741.586
1890.15	730.457
1891.64	742.472
1893.13	745.058
1894.62	736.502
1896.11	728.802
1897.61	738.817
1899.1	732.546
1900.59	733.417
1902.08	734.004
1903.57	730.018
1905.06	742.033
1906.55	734.905
1908.04	728.348
1909.53	739.22
1911.02	728.949
1912.5	743.249
1913.99	736.407
1915.48	749.279
1916.97	746.15
1918.46	749.594
1919.94	747.037
1921.43	746.766
1922.92	730.781
1924.4	740.224
1925.89	745.096
1927.37	743.396
1928.86	754.554
1930.34	738.568
1931.83	757.44
1933.31	739.169
1934.8	738.898
1936.28	756.341
1937.77	734.642
1939.25	758.085
1940.73	745.528
1942.22	755.829
1943.7	739.272
1945.18	749.858
1946.66	740.73
1948.14	743.887
1949.63	749.902
1951.11	747.345
1952.59	747.646
1954.07	736.517
1955.55	739.961
1957.03	745.69
1958.51	747.419
1959.99	736.862
1961.47	742.305
1962.95	720.891
1964.43	747.763
1965.91	739.778
1967.39	746.649
1968.86	740.95
1970.34	744.965
1971.82	727.265
1973.3	738.994
1974.77	739.866
1976.25	724.166
1977.73	742.752
1979.2	730.767
1980.68	751.924
1982.15	734.511
1983.63	723.668
1985.1	731.397
1986.58	736.84
1988.05	735.712
1989.53	736.584
1991	742.885
1992.47	740.614
1993.95	729.2
1995.42	735.214
1996.89	731.515
1998.37	743.529
1999.84	738.687
2001.31	736.987
2002.78	727.288
2004.25	733.588
2005.73	739.888
2007.2	720.475
2008.67	732.489
2010.14	737.647
2011.61	735.09
2013.08	738.533
2014.55	739.405
2016.02	739.42
2017.49	752.292
2018.96	734.878
2020.42	740.607
2021.89	736.907
2023.36	745.779
2024.83	726.651
2026.3	716.38
2027.76	739.252
2029.23	732.409
2030.7	727.281
2032.16	739.01
2033.63	717.882
2035.09	727.039
2036.56	732.768
2038.03	752.211
2039.49	734.512
2040.96	718.527
2042.42	743.97
2043.88	741.127
2045.35	737.713
2046.81	737.442
2048.28	714.886
2049.74	720.615
2051.2	732.629
2052.67	746.644
2054.13	734.373
2055.59	727.816
2057.05	735.545
2058.51	735.846
2059.97	733.003
2061.43	729.589
2062.9	725.318
2064.36	715.619
2065.82	734.49
2067.28	728.505
2068.74	735.663
2070.2	736.534
2071.65	743.121
2073.11	735.421
2074.57	735.721
2076.03	723.736
2077.49	737.179
2078.95	730.908
2080.4	730.923
2081.86	729.509
2083.32	730.667
2084.78	722.11
2086.23	729.839
2087.69	730.996
2089.15	716.154
2090.6	723.026
2092.05	724.183
2093.51	725.055
2094.97	714.784
2096.42	726.227
2097.87	727.385
2099.33	731.971
2100.78	725.414
2102.24	728.286
2103.69	720.015
2105.14	727.173
2106.6	727.473
2108.05	701.488
2109.5	722.074
2110.95	734.66
2112.4	717.817
2113.86	723.261
2115.31	716.418
2116.76	724.719
2118.21	715.59
2119.66	715.605
2121.11	702.191
2122.56	717.92
2124.01	721.078
2125.46	722.807
2126.91	722.821
2128.35	714.265
2129.8	714.565
2131.25	708.58
2132.7	727.166
2134.15	705.752
2135.59	721.767
2137.04	718.638
2138.49	722.939
2139.94	718.096
2141.38	718.968
2142.83	717.84
2144.27	712.998
2145.72	711.012
2147.16	717.027
2148.61	716.47
2150.05	723.913
2151.5	715.071
2152.94	717.943
2154.39	716.529
2155.83	722.544
2157.27	719.13
2158.72	714.287
2160.16	715.159
2161.6	718.602
2163.05	717.188
2164.49	725.489
2165.93	725.789
2167.37	722.661
2168.81	721.819
2170.26	719.262
2171.7	717.562
2173.14	706.148
2174.58	717.02
2176.02	711.035
2177.46	728.192
2178.9	720.207
2180.34	709.65
2181.77	723.951
2183.21	705.108
2184.65	728.266
2186.09	717.995
2187.53	716.295
2188.97	715.453
2190.4	712.039
2191.84	712.911
2193.28	720.354
2194.71	714.083
2196.15	709.526
2197.59	708.969
2199.02	718.127
2200.46	716.427
2201.89	707.585
2203.33	713.885
2204.76	717.9
2206.2	699.629
2207.63	719.358
2209.07	702.801
2210.5	706.53
2211.93	689.402
2213.37	702.274
2214.8	708.86
2216.23	700.303
2217.67	706.032
2219.1	692.333
2220.53	689.776
2221.96	688.648
2223.39	696.662
2224.82	700.677
2226.26	697.549
2227.69	680.706
2229.12	691.864
2230.55	696.45
2231.98	692.179
2233.41	692.765
2234.84	692.208
2236.26	686.794
2237.69	689.381
2239.12	679.681
2240.55	687.696
2241.98	685.71
2243.41	681.725
2244.83	692.883
2246.26	676.612
2247.69	679.483
2249.11	682.355
2250.54	683.227
2251.97	683.242
2253.39	670.113
2254.82	672.414
2256.24	684.714
2257.67	669.586
2259.09	676.458
2260.52	683.044
2261.94	674.202
2263.37	681.359
2264.79	672.231
2266.22	678.531
2267.64	672.546
2269.06	681.703
2270.49	673.433
2271.91	682.019
2273.33	674.319
2274.75	675.191
2276.18	687.491
2277.59	686.935
2279.02	675.806
2280.44	677.25
2281.86	672.407
2283.28	685.85
2284.7	679.008
2286.12	677.023
2287.54	681.323
2288.96	688.481
2290.38	669.924
2291.8	675.939
2293.22	678.525
2294.63	681.396
2296.05	681.411
2297.47	690.854
2298.89	686.869
2300.31	669.741
2301.72	678.613
2303.14	687.77
2304.56	685.214
2305.97	688.371
2307.39	685.243
2308.81	674.686
2310.22	686.129
2311.64	677.287
2313.05	680.444
2314.47	679.602
2315.88	691.617
2317.3	686.774
2318.71	692.217
2320.12	682.518
2321.54	682.247
2322.95	677.404
2324.36	695.705
2325.78	676.291
2327.19	672.306
2328.6	688.32
2330.01	691.478
2331.43	692.921
2332.84	684.079
2334.25	676.379
2335.66	670.394
2337.07	677.266
2338.48	678.709
2339.89	675.581
2341.3	672.452
2342.71	681.039
2344.12	674.196
2345.53	668.782
2346.94	691.654
2348.35	681.954
2349.76	674.255
2351.17	694.555
2352.57	674.57
2353.98	676.013
2355.39	672.028
2356.8	665.757
2358.2	664.914
2359.61	670.643
2361.02	656.944
2362.42	664.958
2363.83	674.402
2365.23	665.845
2366.64	662.431
2368.04	668.16
2369.45	666.175
2370.85	676.761
2372.26	667.061
2373.66	658.219
2375.07	655.662
2376.47	660.819
2377.87	669.12
2379.28	665.42
2380.68	669.721
2382.08	662.307
2383.49	668.321
2384.89	668.622
2386.29	669.208
2387.69	663.794
2389.09	648.952
2390.49	651.252
2391.9	653.838
2393.3	662.138
2394.7	652.153
2396.1	659.311
2397.5	661.897
2398.9	661.626
2400.29	661.355
2401.69	649.084
2403.09	649.67
2404.49	654.827
2405.89	653.699
2407.29	648.857
2408.69	662.871
2410.08	657.458
2411.48	663.472
2412.88	658.058
2414.28	665.502
2415.67	660.945
2417.07	658.388
2418.47	654.974
2419.86	658.989
2421.26	639.575
2422.65	653.875
2424.05	652.747
2425.44	663.048
2426.84	660.491
2428.23	660.791
2429.62	657.092
2431.02	660.249
2432.41	660.264
2433.81	667.707
2435.2	640.293
2436.59	655.165
2437.98	638.608
2439.38	660.337
2440.77	660.066
2442.16	659.795
2443.55	664.381
2444.94	672.967
2446.34	665.554
2447.73	665.283
2449.12	664.44
2450.51	659.026
2451.9	661.327
2453.29	663.627
2454.68	657.356
2456.07	667.085
2457.46	677.1
2458.84	681.4
2460.23	666.557
2461.62	672.572
2463.01	673.73
2464.4	663.459
2465.78	671.473
2467.17	660.345
2468.56	657.503
2469.95	673.232
2471.33	666.675
2472.72	665.547
2474.1	669.276
2475.49	665.862
2476.88	671.305
2478.26	663.32
2479.65	672.192
2481.03	663.921
2482.42	681.935
2483.8	669.093
2485.19	674.25
2486.57	677.979
2487.95	673.137
2489.34	669.152
2490.72	661.166
2492.1	664.61
2493.49	667.196
2494.87	669.496
2496.25	676.368
2497.63	674.668
2499.01	653.826
2500.39	679.841
2501.77	668.427
2503.16	662.727
2504.54	671.599
2505.92	664.471
2507.3	663.628
2508.68	669.643
2510.06	663.943
2511.44	662.815
2512.81	679.116
2514.19	666.559
2515.57	666.574
2516.95	666.017
2518.33	667.174
2519.71	659.475
2521.08	653.775
2522.46	669.218
2523.84	664.376
2525.22	648.676
2526.59	656.977
2527.97	653.563
2529.35	659.006
2530.72	655.878
2532.1	659.321
2533.47	654.479
2534.85	656.208
2536.22	669.079
2537.6	668.523
2538.97	658.252
2540.35	664.552
2541.72	669.424
2543.09	664.01
2544.47	668.882
2545.84	647.754
2547.21	669.483
2548.59	648.069
2549.96	664.083
2551.33	655.812
2552.7	656.399
2554.08	656.699
2555.45	657.571
2556.82	652.443
2558.19	668.172
2559.56	654.186
2560.93	649.629
2562.3	651.073
2563.67	659.087
2565.04	656.245
2566.41	662.26
2567.78	659.989
2569.15	653.718
2570.52	648.304
2571.89	666.89
2573.25	668.047
2574.62	641.491
2575.99	655.505
2577.36	659.234
2578.73	652.677
2580.09	648.121
2581.46	656.993
2582.83	647.864
2584.19	653.879
2585.56	663.894
2586.93	664.48
2588.29	669.066
2589.66	662.509
2591.02	648.81
2592.39	655.11
2593.75	658.553
2595.12	671.711
2596.48	670.868
2597.84	658.597
2599.21	662.326
2600.57	661.198
2601.93	659.213
2603.3	660.085
2604.66	654.099
2606.02	658.685
2607.39	669.272
2608.75	654.429
2610.11	662.729
2611.47	653.03
2612.83	677.902
2614.19	674.202
2615.55	673.931
2616.91	673.374
2618.27	676.532
2619.63	666.261
2620.99	666.561
2622.35	682.29
2623.71	670.591
2625.07	670.034
2626.43	665.763
2627.79	660.349
2629.15	674.078
2630.51	678.093
2631.86	656.679
2633.22	669.265
2634.58	664.708
2635.94	672.723
2637.29	662.452
2638.65	671.609
2640.01	669.91
2641.36	661.067
2642.72	675.653
2644.08	674.239
2645.43	667.683
2646.79	656.554
2648.14	675.141
2649.49	674.155
2650.85	669.456
2652.2	666.327
2653.56	660.628
2654.91	658.357
2656.26	664.943
2657.62	668.672
2658.97	660.401
2660.32	668.701
2661.68	662.716
2663.03	671.588
2664.38	662.174
2665.73	659.331
2667.09	664.489
2668.44	662.218
2669.79	661.947
2671.14	660.819
2672.49	663.405
2673.84	649.991
2675.19	667.434
2676.54	666.02
2677.89	669.749
2679.24	660.05
2680.59	661.207
2681.94	650.936
2683.29	662.665
2684.63	657.823
2685.98	668.98
2687.33	662.995
2688.68	675.295
2690.03	659.31
2691.37	679.61
2692.72	657.339
2694.07	673.068
2695.41	666.512
2696.76	664.526
2698.11	653.398
2699.45	657.413
2700.8	662.285
2702.14	662.585
2703.49	656.885
2704.83	655.472
2706.18	661.486
2707.52	664.644
2708.87	661.516
2710.21	656.387
2711.55	659.831
2712.9	647.845
2714.24	661.574
2715.58	669.303
2716.93	667.604
2718.27	661.333
2719.61	670.776
2720.95	658.505
2722.3	654.52
2723.64	645.963
2724.98	658.263
2726.32	675.135
2727.66	666.293
2729	653.45
2730.34	658.608
2731.68	648.908
2733.02	655.78
2734.36	658.652
2735.7	658.381
2737.04	676.11
2738.38	668.696
2739.72	670.425
2741.06	658.154
2742.39	655.883
2743.73	671.04
2745.07	659.341
2746.41	657.355
2747.74	661.656
2749.08	651.956
2750.42	673.971
2751.75	649.985
2753.09	660
2754.43	665.443
2755.76	678.601
2757.1	671.473
2758.43	661.202
2759.77	664.931
2761.1	651.231
2762.44	658.103
2763.77	670.689
2765.11	658.418
2766.44	668.147
2767.78	653.305
2769.11	671.033
2770.44	663.334
2771.78	668.777
2773.11	673.078
2774.44	663.092
2775.77	680.535
2777.11	663.979
2778.44	652.279
2779.77	659.722
2781.1	662.594
2782.43	662.037
2783.76	670.624
2785.09	659.21
2786.42	664.367
2787.76	655.239
2789.08	677.825
2790.41	679.84
2791.74	670.426
2793.07	666.441
2794.4	671.027
2795.73	659.899
2797.06	665.627
2798.39	671.357
2799.72	660.514
2801.04	665.672
2802.37	677.972
2803.7	660.272
2805.03	664.287
2806.35	674.302
2807.68	666.316
2809.01	666.331
2810.33	679.489
2811.66	668.646
2812.98	674.661
2814.31	664.104
2815.63	668.119
2816.96	660.133
2818.28	667.862
2819.61	661.02
2820.94	676.463
2822.26	670.764
2823.58	671.635
2824.91	687.936
2826.23	663.951
2827.55	669.108
2828.88	680.266
2830.2	675.709
2831.52	667.152
2832.84	668.595
2834.16	667.753
2835.49	673.196
2836.81	671.782
2838.13	680.654
2839.45	677.526
2840.77	681.255
2842.09	679.27
2843.41	679.284
2844.73	677.87
2846.05	685.028
2847.37	684.757
2848.69	685.343
2850.01	691.929
2851.33	691.944
2852.65	685.101
2853.97	686.259
2855.29	683.988
2856.6	693.145
2857.92	687.732
2859.24	702.603
2860.56	696.332
2861.87	697.49
2863.19	700.647
2864.51	697.519
2865.82	695.82
2867.14	704.406
2868.46	711.563
2869.77	711.292
2871.09	700.735
2872.4	713.893
2873.72	705.908
2875.03	719.637
2876.35	703.366
2877.66	712.237
2878.98	726.538
2880.29	719.124
2881.6	725.139
2882.92	744.582
2884.23	734.882
2885.54	745.754
2886.86	752.626
2888.17	733.498
2889.48	750.941
2890.79	744.956
2892.1	749.827
2893.42	760.699
2894.73	767.857
2896.04	747.872
2897.35	742.743
2898.66	768.187
2899.97	765.058
2901.28	764.216
2902.59	744.516
2903.9	760.817
2905.21	764.831
2906.52	771.703
2907.83	764.289
2909.14	760.875
2910.45	757.176
2911.76	766.048
2913.06	750.92
2914.37	765.22
2915.68	776.663
2916.99	748.392
2918.29	744.219
2919.6	787.16
2920.91	773.756
2922.21	769.451
2923.52	780.342
2924.83	763.17
2926.13	773.103
2927.44	781.262
2928.74	782.007
2930.05	772.151
2931.35	762.951
2932.66	778.909
2933.96	780.692
2935.27	798.325
2936.57	780.039
2937.88	777.463
2939.18	787.328
2940.48	782.93
2941.79	788.719
2943.09	789.106
2944.39	791.492
2945.69	781.393
2946.99	788.581
2948.3	786.22
2949.6	786.638
2950.9	771.872
2952.2	789.568
2953.5	781.813
2954.8	771.006
2956.1	770.301
2957.4	760.879
2958.7	758.932
2960	767.591
2961.3	753.007
2962.6	763.638
2963.9	742.561
2965.2	747.193
2966.5	736.619
2967.8	743.39
2969.1	731.426
2970.4	742.465
2971.69	726.134
2972.99	732.268
2974.29	740.135
2975.59	723.058
2976.88	727.806
2978.18	727.995
2979.48	734.892
2980.77	728.748
2982.07	724.184
2983.36	721.677
2984.66	732.141
2985.95	726.28
2987.25	723.157
2988.55	720.323
2989.84	721.597
2991.13	712.119
2992.43	713.009
2993.72	714.454
2995.02	702.045
2996.31	709.867
2997.6	696.015
2998.9	708.699
3000.19	707.079
3001.48	705.595
3002.77	695.611
3004.07	702.011
3005.36	695.726
3006.65	687.09
3007.94	690.948
3009.23	690.176
3010.53	694.371
3011.82	690.045
3013.11	686.992
3014.4	701.259
3015.69	672.616
3016.98	692.326
3018.27	692.03
3019.56	691.048
3020.85	692.389
3022.13	679.74
3023.42	687.479
3024.71	684.602
3026	691.108
3027.29	682.479
3028.58	685.693
3029.86	694.646
3031.15	695.01
3032.44	691.588
3033.73	695.465
3035.01	690.66
3036.3	700.742
3037.58	690.422
3038.87	691.935
3040.16	691.284
3041.44	688.152
3042.73	695.065
3044.01	701.919
3045.3	699.495
3046.58	700.995
3047.87	689.916
3048.04	688.099
3049.33	701.244
3050.62	703.818
3051.91	715.535
3053.2	708.109
3054.49	704.683
3055.77	711.542
3057.06	688.402
3058.35	715.547
3059.64	704.121
3060.93	698.124
3062.22	718.126
3063.51	712.986
3064.79	707.846
3066.08	697.277
3067.37	703.279
3068.66	719.853
3069.94	705.57
3071.23	713.858
3072.52	705.575
3073.8	721.863
3075.09	715.009
3076.37	710.725
3077.66	711.585
3078.94	714.445
3080.23	727.59
3081.51	720.164
3082.8	719.881
3084.08	729.883
3085.37	721.886
3086.65	721.603
3087.94	726.463
3089.22	734.465
3090.5	729.039
3091.78	740.47
3093.07	714.473
3094.35	744.189
3095.63	717.621
3096.91	745.052
3098.2	737.34
3099.48	735.342
3100.76	741.916
3102.04	739.062
3103.32	738.207
3104.6	740.781
3105.88	742.498
3107.16	735.072
3108.44	745.36
3109.72	752.22
3111	757.079
3112.28	759.082
3113.56	758.227
3114.84	771.373
3116.12	769.089
3117.4	751.663
3118.68	761.952
3119.96	777.097
3121.23	779.957
3122.51	773.102
3123.79	764.533
3125.07	775.964
3126.34	780.824
3127.62	785.684
3128.9	785.4
3130.18	777.117
3131.45	775.977
3132.73	790.551
3134	783.125
3135.28	799.984
3136.55	803.987
3137.83	802.275
3139.1	779.992
3140.38	809.709
3141.65	812.283
3142.93	817.142
3144.2	810.574
3145.47	819.433
3146.75	823.15
3148.02	818.01
3149.29	823.155
3150.57	829.729
3151.84	813.732
3153.11	830.306
3154.39	839.165
3155.66	825.739
3156.93	838.027
3158.2	846.887
3159.47	841.175
3160.74	841.178
3162.01	840.037
3163.28	840.04
3164.56	852.328
3165.83	853.188
3167.1	854.905
3168.37	846.622
3169.64	857.481
3170.91	862.627
3172.18	845.772
3173.44	858.06
3174.71	859.206
3175.98	874.351
3177.25	864.639
3178.52	864.07
3179.79	878.073
3181.05	868.361
3182.32	863.506
3183.59	878.938
3184.86	870.369
3186.12	886.371
3187.39	870.945
3188.66	874.948
3189.92	874.379
3191.19	890.381
3192.45	898.384
3193.72	877.815
3194.98	886.675
3196.25	898.106
3197.51	886.394
3198.78	892.968
3200.04	898.685
3201.31	886.116
3202.57	892.69
3203.84	894.121
3205.1	895.266
3206.36	890.126
3207.63	891.271
3208.89	897.274
3210.15	885.276
3211.41	894.707
3212.68	888.424
3213.94	905.284
3215.2	896.144
3216.46	906.432
3217.72	899.577
3218.99	913.865
3220.25	902.725
3221.51	890.442
3222.77	874.73
3224.03	878.161
3225.29	908.735
3226.55	909.595
3227.81	911.883
3229.07	900.457
3230.33	904.46
3231.59	888.462
3232.84	909.607
3234.1	906.181
3235.36	907.898
3236.62	885.615
3237.88	903.046
3239.13	921.049
3240.39	899.337
3241.65	910.768
3242.91	912.485
3244.16	904.773
3245.42	914.49
3246.68	895.921
3247.93	913.352
3249.19	902.783
3250.45	901.929
3251.7	898.217
3252.96	918.219
3254.21	919.936
3255.47	921.081
3256.72	917.655
3257.98	905.944
3259.23	918.803
3260.49	905.092
3261.74	905.094
3262.99	907.668
3264.25	915.385
3265.5	904.245
3266.75	915.104
3268	909.964
3269.26	901.681
3270.51	924.54
3271.76	893.686
3273.02	917.117
3274.27	917.119
3275.52	901.122
3276.77	932.267
3278.02	903.127
3279.27	925.987
3280.52	905.132
3281.77	910.277
3283.02	905.708
3284.27	902.854
3285.52	924.285
3286.77	911.716
3288.02	921.433
3289.27	922.007
3290.52	936.581
3291.77	912.298
3293.02	919.443
3294.27	902.588
3295.51	915.162
3296.76	910.022
3298.01	917.739
3299.26	914.027
3300.5	896.315
3301.75	923.461
3303	934.606
3304.24	923.751
3305.49	926.897
3306.74	927.756
3307.99	918.616
3309.23	915.761
3310.48	932.336
3311.72	919.195
3312.97	935.198
3314.21	917.2
3315.46	920.06
3316.7	929.491
3317.94	930.636
3319.19	915.496
3320.43	921.784
3321.68	924.358
3322.92	929.789
3324.16	908.078
3325.41	920.08
3326.65	937.797
3327.89	923.228
3329.13	912.373
3330.38	929.804
3331.62	946.378
3332.86	922.381
3334.1	914.383
3335.34	908.1
3336.58	924.388
3337.83	926.962
3339.07	927.822
3340.31	911.253
3341.55	933.541
3342.79	926.401
3344.03	924.975
3345.27	920.406
3346.51	921.266
3347.75	932.411
3348.99	917.271
3350.22	908.416
3351.46	908.419
3352.7	909.85
3353.94	924.995
3355.18	914.998
3356.42	934.143
3357.65	924.431
3358.89	923.862
3360.13	917.579
3361.36	936.153
3362.6	910.727
3363.84	925.016
3365.07	921.875
3366.31	926.163
3367.55	919.594
3368.78	936.454
3370.02	924.171
3371.25	915.888
3372.49	926.747
3373.72	935.036
3374.96	939.038
3376.19	941.898
3377.43	920.186
3378.66	931.331
3379.89	932.763
3381.13	922.479
3382.36	903.053
3383.59	918.199
3384.83	930.773
3386.06	928.204
3387.29	925.921
3388.52	919.923
3389.76	927.926
3390.99	924.785
3392.22	944.502
3393.45	932.79
3394.68	909.936
3395.91	917.367
3397.15	934.512
3398.38	934.8
3399.61	938.232
3400.84	933.377
3402.07	929.665
3403.3	925.953
3404.53	959.67
3405.76	931.673
3406.99	929.104
3408.21	939.392
3409.44	938.537
3410.67	918.54
3411.9	940.542
3413.13	925.116
3414.36	943.976
3415.58	933.407
3416.81	933.695
3418.04	939.412
3419.27	943.986
3420.49	933.132
3421.72	941.705
3422.95	947.708
3424.17	949.425
3425.4	939.427
3426.62	940.001
3427.85	949.718
3429.08	939.435
3430.3	950.866
3431.53	932.583
3432.75	942.014
3433.98	944.874
3435.2	952.019
3436.42	948.879
3437.65	936.596
3438.87	934.027
3440.1	936.886
3441.32	934.889
3442.54	953.463
3443.76	940.894
3444.99	930.039
3446.21	924.328
3447.43	943.187
3448.66	926.047
3449.88	925.478
3451.1	924.052
3452.32	937.197
3453.54	930.343
3454.76	932.917
3455.98	918.919
3457.21	934.35
3458.43	937.496
3459.65	930.927
3460.87	914.358
3462.09	927.217
3463.3	923.791
3464.53	907.223
3465.74	918.368
3466.96	914.37
3468.18	906.659
3469.4	894.661
3470.62	890.949
3471.84	914.095
3473.06	903.526
3474.27	911.528
3475.49	896.388
3476.71	886.676
3477.93	894.679
3479.14	888.681
3480.36	898.398
3481.58	887.258
3482.79	902.117
3484.01	883.263
3485.22	894.408
3486.44	883.268
3487.66	866.413
3488.87	884.987
3490.09	880.704
3491.3	868.421
3492.52	882.995
3493.73	856.712
3494.95	865.857
3496.16	864.431
3497.37	858.719
3498.59	842.722
3499.8	853.867
3501.01	845.87
3502.23	846.158
3503.44	836.16
3504.65	850.449
3505.87	837.023
3507.08	832.739
3508.29	829.599
3509.5	827.03
3510.71	811.033
3511.93	816.178
3513.14	816.466
3514.35	812.183
3515.56	818.757
3516.77	786.76
3517.98	803.619
3519.19	785.622
3520.4	802.767
3521.61	799.627
3522.82	799.915
3524.03	778.775
3525.24	773.063
3526.45	776.78
3527.66	765.64
3528.86	785.071
3530.07	778.216
3531.28	786.79
3532.49	768.507
3533.7	772.509
3534.9	755.083
3536.11	750.514
3537.32	760.231
3538.53	747.948
3539.73	765.665
3540.94	729.667
3542.15	758.527
3543.35	749.672
3544.56	747.389
3545.76	738.249
3546.97	725.68
3548.18	733.682
3549.38	740.256
3550.59	743.116
3551.79	723.976
3553	725.407
3554.2	722.552
3555.4	723.126
3556.61	728.843
3557.81	727.131
3559.02	728.848
3560.22	718.565
3561.42	726.853
3562.62	717.427
3563.83	709.715
3565.03	707.718
3566.23	713.435
3567.44	716.294
3568.64	702.297
3569.84	703.156
3571.04	706.016
3572.24	705.162
3573.44	691.45
3574.64	714.024
3575.84	706.026
3577.04	702.886
3578.25	685.46
3579.45	700.034
3580.65	695.465
3581.84	693.753
3583.04	677.756
3584.24	685.472
3585.44	683.761
3586.64	686.62
3587.84	664.909
3589.04	680.911
3590.24	692.628
3591.44	695.488
3592.63	673.49
3593.83	686.921
3595.03	681.209
3596.23	690.069
3597.42	680.929
3598.62	672.931
3599.82	668.077
3601.01	674.651
3602.21	668.939
3603.41	670.941
3604.6	660.087
3605.8	674.089
3606.99	665.235
3608.19	666.094
3609.38	663.526
3610.58	654.099
3611.77	660.673
3612.97	662.105
3614.16	651.536
3615.36	660.967
3616.55	647.255
3617.74	659.257
3618.94	654.689
3620.13	656.405
3621.32	647.265
3622.52	652.696
3623.71	640.984
3624.9	632.13
3626.09	627.275
3627.29	634.992
3628.48	644.995
3629.67	644.14
3630.86	626.999
3632.05	631.002
3633.24	636.147
3634.44	627.578
3635.63	631.295
3636.82	626.155
3638.01	619.872
3639.2	624.732
3640.39	611.877
3641.58	614.737
3642.77	614.168
3643.95	626.456
3645.15	603.316
3646.33	610.747
3647.52	596.749
3648.71	604.18
3649.9	605.326
3651.09	594.185
3652.28	592.474
3653.46	589.047
3654.65	598.193
3655.84	595.91
3657.03	582.198
3658.21	571.629
3659.4	580.489
3660.58	584.491
3661.77	573.637
3662.96	573.639
3664.14	587.07
3665.33	569.073
3666.52	555.647
3667.7	568.792
3668.89	560.795
3670.07	561.083
3671.25	552.8
3672.44	559.088
3673.62	555.376
3674.81	566.807
3675.99	560.81
3677.18	542.812
3678.36	541.386
3679.54	541.96
3680.73	539.677
3681.91	539.108
3683.09	535.682
3684.27	527.399
3685.46	539.116
3686.64	525.404
3687.82	523.406
3689	533.98
3690.19	531.983
3691.37	538.843
3692.55	533.131
3693.73	525.133
3694.91	519.707
3696.09	529.71
3697.27	529.141
3698.45	528.001
3699.63	515.717
3700.81	525.72
3701.99	523.437
3703.17	516.582
3704.35	534.013
3705.53	520.016
3706.71	521.447
3707.89	526.021
3709.06	524.88
3710.24	518.311
3711.42	517.457
3712.6	528.888
3713.78	511.748
3714.95	511.179
3716.13	508.61
3717.31	519.184
3718.48	510.615
3719.66	522.046
3720.84	532.334
3722.01	517.194
3723.19	515.482
3724.37	519.485
3725.54	513.487
3726.72	520.347
3727.89	522.064
3729.07	522.352
3730.24	525.212
3731.42	506.643
3732.59	496.931
3733.77	516.362
3734.94	532.365
3736.12	510.081
3737.29	515.798
3738.46	520.372
3739.64	523.232
3740.81	517.806
3741.98	510.951
3743.15	516.668
3744.33	503.242
3745.5	518.959
3746.67	519.818
3747.84	526.678
3749.02	513.823
3750.19	522.683
3751.36	515.828
3752.53	523.831
3753.7	533.262
3754.87	530.408
3756.04	515.553
3757.21	523.841
3758.38	527.844
3759.55	507.846
3760.72	521.563
3761.89	519.565
3763.06	509.568
3764.23	508.713
3765.4	521.573
3766.57	531.29
3767.74	510.15
3768.91	515.295
3770.08	503.583
3771.24	515.871
3772.41	528.445
3773.58	526.734
3774.75	523.308
3775.91	521.596
3777.08	519.313
3778.25	510.458
3779.41	508.746
3780.58	517.32
3781.75	517.037
3782.91	508.182
3784.08	518.185
3785.25	522.187
3786.41	529.904
3787.58	520.478
3788.74	525.338
3789.91	519.912
3791.07	513.914
3792.24	521.917
3793.4	519.062
3794.57	516.493
3795.73	517.353
3796.89	511.07
3798.06	521.644
3799.22	511.361
3800.38	517.077
3801.55	515.937
3802.71	514.511
3803.87	503.942
3805.03	514.802
3806.2	509.947
3807.36	512.521
3808.52	512.524
3809.68	512.526
3810.84	522.814
3812.01	506.531
3813.17	526.819
3814.33	511.108
3815.49	511.11
3816.65	513.113
3817.81	499.687
3818.97	517.975
3820.13	518.263
3821.29	523.98
3822.45	513.697
3823.61	502.842
3824.77	501.416
3825.93	515.419
3827.09	505.707
3828.24	519.995
3829.4	511.712
3830.56	508.857
3831.72	514.574
3832.88	511.148
3834.04	501.151
3835.19	514.01
3836.35	511.441
3837.51	514.015
3838.66	500.018
3839.82	512.306
3840.98	514.88
3842.13	513.74
3843.29	521.171
3844.45	522.602
3845.6	510.89
3846.76	509.464
3847.91	505.467
3849.07	508.898
3850.22	513.186
3851.38	520.331
3852.53	516.905
3853.69	512.622
3854.84	519.196
3856	519.199
3857.15	517.773
3858.3	515.204
3859.46	515.206
3860.61	509.209
3861.76	520.925
3862.92	507.785
3864.07	520.645
3865.22	509.79
3866.37	512.65
3867.53	520.367
3868.68	520.083
3869.83	534.943
3870.98	519.231
3872.13	520.091
3873.28	531.808
3874.43	523.81
3875.59	523.242
3876.74	524.101
3877.89	525.247
3879.04	520.392
3880.19	528.109
3881.34	530.683
3882.49	537.257
3883.64	524.688
3884.79	547.547
3885.93	530.407
3887.08	526.981
3888.23	518.412
3889.38	540.7
3890.53	539.56
3891.68	533.563
3892.83	532.422
3893.97	544.425
3895.12	534.713
3896.27	541.001
3897.41	536.718
3898.56	541.292
3899.71	555.866
3900.86	540.154
3902	541.014
3903.15	544.731
3904.29	532.447
3905.44	539.593
3906.59	541.595
3907.73	550.455
3908.88	548.743
3910.02	549.889
3911.17	559.034
3912.31	553.322
3913.46	564.182
3914.6	541.042
3915.75	552.473
3916.89	553.047
3918.03	540.478
3919.18	564.48
3920.32	545.626
3921.46	554.2
3922.61	556.202
3923.75	563.919
3924.89	553.636
3926.03	559.067
3927.18	558.212
3928.32	540.501
3929.46	561.646
3930.6	556.791
3931.74	560.222
3932.89	563.939
3934.03	566.227
3935.17	572.23
3936.31	560.518
3937.45	552.806
3938.59	566.809
3939.73	565.097
3940.87	549.957
3942.01	558.531
3943.15	556.533
3944.29	550.822
3945.43	561.967
3946.57	549.398
3947.71	564.543
3948.84	550.832
3949.98	562.548
3951.12	553.694
3952.26	566.554
3953.4	563.699
3954.54	567.13
3955.67	558.275
3956.81	568.849
3957.95	559.423
3959.09	575.997
3960.22	568
3961.36	575.145
3962.5	578.291
3963.63	558.579
3964.77	560.581
3965.9	567.727
3967.04	569.444
3968.18	565.16
3969.31	566.02
3970.45	562.594
3971.58	565.454
3972.72	566.885
3973.85	570.602
3974.99	556.89
3976.12	582.892
3977.25	566.609
3978.39	592.897
3979.52	574.043
3980.65	582.902
3981.79	567.476
3982.92	572.622
3984.05	568.91
3985.19	583.484
3986.32	573.201
3987.45	571.203
3988.58	573.492
3989.72	572.351
3990.85	576.068
3991.98	584.642
3993.11	580.359
3994.24	587.504
3995.37	567.221
3996.5	582.938
3997.64	577.797
3998.77	568.943
3999.9	591.803
