#Acq. time (s)=	20
#Accumulations=	8
#Range (cm-¹)=	50...4000
#Windows=	3
#Autofocus=	Off
#AutoExposure=	Off
#Spike filter=	Multiple accum.
#Delay time (s)=	0
#Binning=	1
#Readout mode=	Signal
#DeNoise=	Off
#ICS correction=	Off
#Dark correction=	Off
#Inst. Process=	Off
#Instrument=	LabRAM HR Evol
#Detector=	Syncerity OE
#Objective=	x100_VIS
#Grating=	600 (500nm)
#ND Filter=	5%
#Laser=	532nm_Edge
#Hole=	100.021
#Range=	Visible
#Project=	Omar
#Sample=	120523
#Site=	ap
#Title=	mz
#Remark=	5 laser intensity
#Date=	12.05.2023 17:01
#Acquired=	12.05.2023 17:01:16
51.0297	26.5714
52.8754	31.6332
54.7185	34.6951
56.5635	36.8997
58.406	52.8187
60.2502	80.4519
62.0919	110.085
63.9355	145.147
65.7765	178.78
67.6193	214.128
69.4595	257.761
71.3016	300.251
73.1412	363.885
74.9825	413.232
76.8214	442.294
78.662	473.927
80.5001	496.132
82.34	524.051
84.1774	563.684
86.0166	568.746
87.8532	578.379
89.6917	601.727
91.5276	601.36
93.3632	598.707
95.2006	585.483
97.0355	587.974
98.8721	593.321
100.706	593.526
102.54	600.588
104.376	601.078
106.209	608.711
108.041	608.345
109.876	612.549
111.708	601.04
113.542	615.244
115.373	599.163
117.204	616.225
119.036	612.716
120.867	605.492
122.697	606.839
124.526	602.472
126.357	603.249
128.186	602.596
130.014	595.372
131.845	600.72
133.672	599.782
135.5	616.843
137.327	610.762
139.155	613.253
140.982	616.314
142.807	609.091
144.633	614.438
146.46	619.5
148.285	622.562
150.11	619.624
151.934	615.542
153.757	630.89
155.583	609.666
157.406	609.585
159.229	606.647
161.051	622.566
162.873	621.342
164.697	611.832
166.518	614.037
168.339	625.099
170.159	614.732
171.98	619.222
173.799	603.427
175.619	613.632
177.44	612.122
179.259	613.184
181.077	616.246
182.895	620.45
184.713	600.084
186.53	620.288
188.347	615.922
190.164	610.126
191.98	609.474
193.796	616.25
195.612	595.883
197.427	615.231
199.242	605.15
201.059	603.069
202.873	609.559
204.686	601.764
206.5	606.254
208.313	610.459
210.126	600.378
211.938	602.582
213.75	604.215
215.562	600.42
217.373	602.625
219.184	592.83
220.993	587.606
222.803	591.239
224.613	599.444
226.422	580.505
228.232	592.996
230.04	587.2
231.849	590.262
233.657	597.324
235.465	575.529
237.272	582.305
239.079	583.938
240.886	589.857
242.693	574.633
244.497	591.409
246.302	578.471
248.108	590.676
249.913	596.88
251.717	578.228
253.521	587.004
255.325	595.494
257.127	585.413
258.93	585.618
260.733	590.68
262.535	578.599
264.338	579.661
266.137	580.151
267.939	579.784
269.74	589.703
271.541	579.908
273.341	583.541
275.139	574.603
276.939	581.95
278.738	577.584
280.537	574.36
282.334	559.707
284.132	578.769
285.93	574.117
287.728	565.178
289.523	576.812
291.32	584.159
293.117	574.649
294.911	572.283
296.707	576.773
298.502	578.121
300.295	572.611
302.09	566.816
303.885	578.163
305.677	576.368
307.47	574.858
309.264	588.777
311.055	591.553
312.848	598.329
314.64	582.82
316.43	591.882
318.222	599.801
320.011	578.005
321.802	579.353
323.593	600.129
325.381	597.191
327.171	591.395
328.958	600.172
330.748	581.805
332.535	596.009
334.323	595.928
336.109	603.847
337.897	588.338
339.685	589.685
341.47	587.604
343.257	577.809
345.041	597.442
346.827	583.932
348.611	593.566
350.397	588.628
352.18	567.689
353.962	579.322
355.747	586.956
357.529	584.589
359.312	587.365
361.094	591.855
362.877	582.632
364.658	599.122
366.44	585.041
368.22	597.246
369.999	597.736
371.781	594.512
373.56	595.86
375.34	604.921
377.119	599.698
378.896	596.188
380.676	600.964
382.453	592.883
384.23	602.23
386.009	613.292
387.785	609.211
389.561	613.416
391.338	605.049
393.113	594.397
394.888	593.173
396.665	600.235
398.439	601.868
400.213	596.93
401.988	610.563
403.761	594.482
405.534	601.829
407.306	614.034
409.081	605.382
410.852	594.443
412.624	613.791
414.395	615.424
416.167	612.772
417.938	607.833
419.708	623.752
421.477	617.386
423.249	606.162
425.018	608.366
426.786	616
428.555	599.061
430.323	599.838
432.092	604.042
433.86	600.818
435.627	603.309
437.393	600.942
439.16	609.432
440.926	601.066
442.691	595.556
444.458	608.046
446.223	612.822
447.988	606.17
449.752	606.66
451.516	626.865
453.28	615.07
455.043	616.132
456.806	626.336
458.568	619.112
460.33	620.174
462.092	622.664
463.854	618.869
465.615	620.217
467.378	616.707
469.138	631.483
470.899	635.688
472.658	624.75
474.418	622.954
476.177	611.445
477.936	618.506
479.694	613.283
481.452	624.344
483.21	619.692
484.966	622.754
486.723	624.387
488.48	620.02
490.236	620.796
491.992	614.715
493.748	623.491
495.503	621.125
497.258	631.615
499.013	624.391
500.768	618.024
502.522	635.086
504.276	639.005
506.029	615.781
507.78	625.414
509.533	611.333
511.285	619.538
513.037	627.457
514.789	631.376
516.54	635.581
518.289	639.5
520.04	620.276
521.791	641.337
523.541	648.114
525.29	660.604
527.04	631.38
528.787	636.442
530.536	622.646
532.284	641.137
534.032	620.484
535.778	631.832
537.525	635.465
539.272	624.527
541.019	644.16
542.763	629.793
544.509	642.57
546.255	648.203
548	644.979
549.743	638.041
551.488	626.531
553.232	643.021
554.974	636.369
556.718	632.574
558.462	651.35
560.203	639.554
561.945	654.045
563.688	624.535
565.428	626.168
567.169	642.373
568.911	638.578
570.65	626.497
572.391	637.559
574.129	638.049
575.869	631.111
577.609	637.03
579.346	636.949
581.085	642.01
582.822	643.358
584.56	643.848
586.296	636.91
588.034	642.829
589.771	643.034
591.506	655.238
593.243	660.015
594.978	643.076
596.714	646.71
598.447	644.914
600.183	642.547
601.916	652.181
603.651	637.814
605.383	641.447
607.117	647.652
608.849	652.999
610.582	649.776
612.313	658.552
614.044	664.185
615.776	658.104
617.507	662.308
619.238	667.37
620.968	660.432
622.699	664.065
624.428	659.127
626.156	669.903
627.886	676.679
629.614	694.884
631.342	675.374
633.071	672.151
634.797	660.069
636.526	670.274
638.252	668.765
639.978	654.112
641.705	663.46
643.431	655.093
645.155	653.869
646.88	666.931
648.606	655.421
650.33	662.197
652.053	653.259
653.779	656.607
655.502	656.526
657.224	661.016
658.946	662.078
660.67	649.425
662.392	649.63
664.113	677.549
665.834	670.325
667.556	650.244
669.277	646.449
670.997	662.367
672.716	659.144
674.435	661.92
676.156	661.267
677.875	661.472
679.593	652.534
681.311	675.596
683.029	649.229
684.746	658.005
686.465	660.209
688.182	657.843
689.898	653.476
691.614	655.395
693.33	657.885
695.045	658.09
696.76	659.152
698.475	673.357
700.189	673.275
701.904	664.623
703.619	662.542
705.333	668.175
707.046	675.808
708.759	670.299
710.471	666.503
712.183	676.137
713.895	675.484
715.606	668.832
717.317	667.036
719.028	665.813
720.739	664.589
722.449	662.222
724.159	656.141
725.868	671.488
727.578	682.55
729.286	666.183
730.995	668.674
732.703	668.307
734.409	674.512
736.117	669.002
737.824	683.778
739.531	661.983
741.237	683.616
742.944	659.821
744.65	676.883
746.355	659.944
748.061	666.149
749.766	663.211
751.468	672.273
753.173	656.477
754.877	666.111
756.581	686.029
758.284	678.234
759.987	665.582
761.688	678.929
763.39	682.277
765.092	667.053
766.794	672.686
768.496	660.891
770.195	673.953
771.896	676.729
773.596	662.648
775.296	675.424
776.994	674.485
778.694	679.262
780.393	671.466
782.092	690.814
783.788	665.304
785.487	661.223
787.185	675.428
788.882	667.347
790.578	657.551
792.274	672.042
793.971	676.247
795.666	671.308
797.362	676.084
799.057	662.86
800.751	678.208
802.446	671.556
804.138	675.76
805.833	679.965
807.527	675.884
809.219	672.374
810.912	675.722
812.605	687.355
814.296	690.131
815.989	693.479
817.679	684.826
819.371	700.745
821.06	694.378
822.752	702.869
824.441	703.645
826.131	705.564
827.822	698.626
829.51	709.687
831.199	704.178
832.887	704.097
834.576	696.873
836.262	708.506
837.951	708.425
839.637	697.487
841.323	708.834
843.01	705.896
844.695	695.529
846.382	709.448
848.066	706.51
849.753	702.143
851.436	694.92
853.122	701.981
854.805	708.186
856.488	720.391
858.173	711.738
859.855	715.943
861.539	692.148
863.221	684.924
864.902	721.7
866.585	705.047
868.266	712.109
869.946	714.599
871.628	714.233
873.308	705.009
874.987	696.071
876.668	705.99
878.347	700.48
880.026	695.542
881.704	705.461
883.384	685.951
885.061	696.727
886.739	686.36
888.418	681.994
890.094	684.198
891.771	676.974
893.447	678.893
895.122	685.384
896.799	703.874
898.475	688.65
900.149	696.284
901.824	678.202
903.498	694.407
905.174	678.897
906.847	679.959
908.52	681.307
910.193	684.654
911.866	680.573
913.538	688.778
915.212	686.983
916.883	696.044
918.555	691.106
920.226	681.025
921.896	683.516
923.567	694.292
925.237	692.782
926.907	673.273
928.576	683.477
930.245	693.967
931.914	692.172
933.584	693.805
935.253	689.439
936.92	678.5
938.588	697.562
940.255	682.91
941.922	690.257
943.589	705.605
945.255	706.095
946.921	698.014
948.587	705.647
950.252	695.281
951.917	700.343
953.582	716.833
955.244	692.18
956.909	707.242
958.572	712.304
960.236	691.937
961.899	697.856
963.562	707.489
965.225	696.837
966.887	706.185
968.549	708.961
970.211	705.165
971.872	690.798
973.531	691.003
975.192	712.636
976.852	701.127
978.512	703.903
980.172	725.25
981.831	718.884
983.489	713.66
985.148	707.007
986.806	701.212
988.464	721.131
990.122	700.193
991.778	701.826
993.435	708.316
995.092	703.664
996.749	684.726
998.404	711.216
1000.06	712.278
1001.72	711.34
1003.37	711.259
1005.02	746.32
1006.68	732.24
1008.33	727.873
1009.99	711.22
1011.64	723.139
1013.29	715.915
1014.95	714.691
1016.6	700.039
1018.25	717.386
1019.9	712.734
1021.55	709.51
1023.2	718.857
1024.85	701.634
1026.51	714.981
1028.16	714.043
1029.81	714.819
1031.46	719.309
1033.1	710.371
1034.75	711.433
1036.4	712.781
1038.05	712.128
1039.7	701.19
1041.34	716.823
1042.99	709.885
1044.64	723.518
1046.29	707.151
1047.93	713.07
1049.58	722.132
1051.22	731.765
1052.87	743.113
1054.51	738.461
1056.16	740.094
1057.8	740.87
1059.45	727.36
1061.09	730.708
1062.73	731.198
1064.38	727.403
1066.02	731.322
1067.66	742.098
1069.3	748.017
1070.95	732.507
1072.59	749.283
1074.23	742.631
1075.87	735.121
1077.51	726.469
1079.15	736.102
1080.79	732.021
1082.43	746.226
1084.07	735.002
1085.71	743.492
1087.35	742.554
1088.99	733.044
1090.62	731.82
1092.26	730.025
1093.9	738.801
1095.53	730.434
1097.17	728.639
1098.81	742.844
1100.44	735.334
1102.08	722.11
1103.71	732.886
1105.35	733.948
1106.99	730.724
1108.62	728.357
1110.25	721.705
1111.89	729.624
1113.52	712.4
1115.15	729.462
1116.79	718.238
1118.42	731.014
1120.05	734.362
1121.68	727.995
1123.31	740.485
1124.95	721.261
1126.58	738.894
1128.21	742.242
1129.84	748.161
1131.47	740.651
1133.1	721.427
1134.73	738.489
1136.36	740.123
1137.98	733.47
1139.61	736.818
1141.24	744.451
1142.87	745.513
1144.5	739.717
1146.12	749.636
1147.75	770.698
1149.38	762.331
1151	777.679
1152.63	805.312
1154.26	820.374
1155.88	829.721
1157.51	830.212
1159.13	825.845
1160.76	806.621
1162.38	799.683
1164	779.316
1165.63	754.092
1167.25	768.297
1168.87	760.216
1170.49	733.849
1172.12	745.482
1173.74	753.973
1175.36	739.606
1176.98	748.382
1178.6	750.872
1180.22	744.506
1181.84	743.853
1183.46	742.629
1185.08	757.405
1186.7	766.182
1188.32	769.529
1189.94	771.448
1191.56	752.224
1193.18	756.143
1194.79	752.062
1196.41	743.981
1198.03	743.9
1199.64	735.247
1201.26	737.166
1202.88	749.942
1204.49	761.576
1206.11	750.923
1207.72	739.128
1209.34	743.904
1210.95	752.966
1212.57	736.599
1214.18	755.089
1215.8	745.866
1217.41	735.213
1219.02	721.703
1220.64	741.908
1222.25	739.256
1223.86	725.175
1225.47	742.808
1227.08	739.584
1228.69	733.217
1230.3	720.565
1231.92	730.484
1233.53	733.545
1235.14	723.179
1236.75	712.812
1238.35	733.874
1239.96	728.078
1241.57	724.283
1243.18	714.202
1244.79	731.55
1246.4	726.326
1248.01	731.673
1249.61	737.306
1251.22	738.083
1252.82	747.144
1254.43	727.063
1256.04	740.697
1257.64	754.615
1259.25	747.106
1260.85	734.168
1262.46	738.658
1264.06	736.291
1265.67	755.068
1267.27	746.701
1268.87	746.62
1270.48	750.253
1272.08	743.886
1273.68	746.662
1275.28	740.867
1276.89	750.5
1278.49	749.848
1280.09	740.338
1281.69	746.828
1283.29	728.462
1284.89	746.381
1286.49	728.3
1288.09	740.361
1289.69	748.138
1291.29	738.914
1292.89	740.833
1294.49	729.037
1296.09	752.956
1297.68	740.589
1299.28	743.937
1300.88	751.284
1302.48	728.346
1304.07	759.408
1305.67	748.184
1307.26	746.103
1308.86	750.879
1310.46	744.512
1312.05	736.431
1313.65	754.35
1315.24	753.698
1316.84	758.474
1318.43	761.25
1320.02	758.598
1321.62	743.945
1323.21	744.15
1324.8	739.212
1326.39	760.845
1327.99	743.335
1329.58	766.683
1331.17	761.459
1332.76	750.521
1334.35	753.297
1335.94	749.216
1337.53	750.278
1339.12	750.482
1340.71	730.973
1342.3	745.463
1343.89	753.382
1345.48	743.872
1347.07	757.505
1348.65	753.424
1350.24	732.486
1351.83	764.977
1353.42	761.753
1355	745.1
1356.59	760.162
1358.18	754.081
1359.76	741.429
1361.35	747.919
1362.93	755.266
1364.52	755.185
1366.1	749.39
1367.69	758.166
1369.27	758.085
1370.86	727.147
1372.44	747.066
1374.02	768.128
1375.61	731.761
1377.19	737.394
1378.77	763.885
1380.35	751.518
1381.93	753.151
1383.52	740.499
1385.1	747.275
1386.68	735.765
1388.26	761.113
1389.84	743.032
1391.42	752.951
1393	742.87
1394.58	756.503
1396.16	752.707
1397.74	748.912
1399.31	736.831
1400.89	747.893
1402.47	755.526
1404.05	757.731
1405.63	747.078
1407.2	755.569
1408.78	750.916
1410.36	754.264
1411.93	746.183
1413.51	758.673
1415.08	742.878
1416.66	765.654
1418.23	755.573
1419.81	748.063
1421.38	753.696
1422.95	752.187
1424.53	756.963
1426.1	752.31
1427.68	758.801
1429.25	744.72
1430.82	760.067
1432.39	763.129
1433.96	775.334
1435.54	748.681
1437.11	768.6
1438.68	767.948
1440.25	758.152
1441.82	755.786
1443.39	772.847
1444.96	761.338
1446.53	757.828
1448.1	757.747
1449.67	774.809
1451.23	761.871
1452.8	782.933
1454.37	773.994
1455.94	765.913
1457.5	785.832
1459.07	774.037
1460.64	777.385
1462.21	753.303
1463.77	768.08
1465.34	782.856
1466.9	763.917
1468.47	758.694
1470.03	764.327
1471.6	753.96
1473.16	756.45
1474.72	766.369
1476.29	754.288
1477.85	750.207
1479.42	757.841
1480.98	742.902
1482.54	753.964
1484.1	766.74
1485.66	736.945
1487.23	752.007
1488.79	752.211
1490.35	739.845
1491.91	749.192
1493.47	753.397
1495.03	753.887
1496.59	773.235
1498.15	766.868
1499.71	755.358
1501.27	757.277
1502.83	761.482
1504.39	765.687
1505.94	768.748
1507.5	762.667
1509.06	782.301
1510.62	781.363
1512.17	810.424
1513.73	814.343
1515.29	836.548
1516.84	836.753
1518.4	850.672
1519.95	857.162
1521.51	877.938
1523.06	872.714
1524.62	888.347
1526.17	904.838
1527.72	907.614
1529.28	921.533
1530.83	883.737
1532.38	891.085
1533.94	866.433
1535.49	850.637
1537.04	806.842
1538.59	815.332
1540.15	802.108
1541.7	796.027
1543.25	808.803
1544.8	794.151
1546.35	786.641
1547.9	778.846
1549.45	791.908
1551	776.398
1552.55	776.031
1554.1	762.808
1555.65	773.584
1557.19	783.503
1558.74	775.136
1560.29	762.483
1561.84	765.259
1563.38	756.035
1564.93	774.24
1566.48	762.731
1568.02	774.935
1569.57	767.997
1571.12	754.773
1572.66	765.835
1574.2	775.754
1575.75	765.101
1577.3	754.449
1578.84	781.511
1580.38	763.144
1581.93	760.206
1583.47	769.839
1585.01	762.901
1586.56	748.82
1588.1	757.31
1589.64	761.801
1591.18	767.719
1592.72	761.638
1594.27	774.986
1595.81	762.619
1597.35	756.253
1598.89	765.6
1600.43	748.662
1601.97	768.867
1603.51	769.643
1605.05	770.133
1606.59	776.216
1608.12	772.676
1609.66	752.329
1611.2	761.465
1612.74	761.661
1614.27	771.515
1615.81	750.431
1617.35	756.71
1618.89	749.271
1620.42	747.77
1621.96	743.267
1623.5	761.088
1625.03	758.449
1626.57	765.244
1628.1	743.954
1629.63	768.975
1631.17	765.392
1632.7	757.276
1634.24	756.353
1635.77	743.145
1637.3	770.018
1638.84	761.845
1640.37	766.657
1641.9	757.727
1643.43	750.391
1644.97	763.118
1646.5	754.768
1648.03	756.201
1649.56	768.936
1651.09	760.167
1652.62	761.834
1654.15	770.742
1655.68	771.536
1657.21	765.89
1658.74	763.532
1660.27	755.449
1661.79	769.836
1663.32	765.577
1664.85	768.287
1666.38	758.667
1667.91	770.325
1669.43	762.54
1670.96	766.425
1672.49	768.165
1674.01	767.915
1675.54	761.583
1677.06	762.183
1678.59	759.744
1680.11	764.372
1681.64	768.174
1683.16	766.935
1684.69	765.502
1686.21	765.862
1687.73	757.556
1689.26	760.971
1690.78	758.865
1692.3	750.237
1693.83	758.756
1695.35	748.548
1696.87	751.063
1698.39	760.615
1699.91	753.04
1701.43	760.226
1702.96	751.927
1704.48	756.603
1706	751.607
1707.52	754.795
1709.04	744.423
1710.55	749.948
1712.07	752.246
1713.59	757.369
1715.11	750.581
1716.63	745.487
1718.15	746.869
1719.66	753.764
1721.18	743.921
1722.7	747.058
1724.21	751.214
1725.73	747.818
1727.25	742.108
1728.76	743.42
1730.28	745.412
1731.8	739.033
1733.31	738.171
1734.82	742.385
1736.34	737.018
1737.85	724.687
1739.37	725.479
1740.88	738.141
1742.39	741.185
1743.91	732.26
1745.42	732.218
1746.93	729.941
1748.45	737.335
1749.96	733.455
1751.47	739.451
1752.98	739.951
1754.49	722.946
1756	729.661
1757.51	738.359
1757.73	739.587
1759.25	736.144
1760.77	724.702
1762.28	745.26
1763.8	730.675
1765.31	731.804
1766.83	739.505
1768.34	750.634
1769.86	728.049
1771.37	726.892
1772.89	732.593
1774.4	742.865
1775.92	737.994
1777.43	743.98
1778.94	749.395
1780.46	743.953
1781.97	747.082
1783.48	735.354
1784.99	733.34
1786.51	744.184
1788.02	738.456
1789.53	738.156
1791.04	741.571
1792.55	721.272
1794.06	728.687
1795.57	738.102
1797.08	754.945
1798.59	741.789
1800.1	732.061
1801.61	750.047
1803.12	730.605
1804.63	751.163
1806.13	738.292
1807.64	753.135
1809.15	743.122
1810.66	751.965
1812.16	751.98
1813.67	742.28
1815.18	725.152
1816.68	764.881
1818.19	744.038
1819.7	744.91
1821.2	746.068
1822.71	745.511
1824.21	763.811
1825.72	725.826
1827.22	746.698
1828.72	723.855
1830.23	726.727
1831.73	741.028
1833.23	738.185
1834.74	731.628
1836.24	734.5
1837.74	737.372
1839.24	735.672
1840.75	743.973
1842.25	740.559
1843.75	730.288
1845.25	742.588
1846.75	724.317
1848.25	735.475
1849.75	740.061
1851.25	751.219
1852.75	747.233
1854.25	730.962
1855.75	736.406
1857.25	737.277
1858.75	722.149
1860.24	743.592
1861.74	732.179
1863.24	746.193
1864.74	725.351
1866.23	729.651
1867.73	739.951
1869.23	736.823
1870.72	747.981
1872.22	737.71
1873.71	736.01
1875.21	744.311
1876.7	742.325
1878.2	746.054
1879.69	736.64
1881.19	753.512
1882.68	730.956
1884.18	734.399
1885.67	737.842
1887.16	744.428
1888.66	741.586
1890.15	730.457
1891.64	742.472
1893.13	745.058
1894.62	736.502
1896.11	728.802
1897.61	738.817
1899.1	732.546
1900.59	733.417
1902.08	734.004
1903.57	730.018
1905.06	742.033
1906.55	734.905
1908.04	728.348
1909.53	739.22
1911.02	728.949
1912.5	743.249
1913.99	736.407
1915.48	749.279
1916.97	746.15
1918.46	749.594
1919.94	747.037
1921.43	746.766
1922.92	730.781
1924.4	740.224
1925.89	745.096
1927.37	743.396
1928.86	754.554
1930.34	738.568
1931.83	757.44
1933.31	739.169
1934.8	738.898
1936.28	756.341
1937.77	734.642
1939.25	758.085
1940.73	745.528
1942.22	755.829
1943.7	739.272
1945.18	749.858
1946.66	740.73
1948.14	743.887
1949.63	749.902
1951.11	747.345
1952.59	747.646
1954.07	736.517
1955.55	739.961
1957.03	745.69
1958.51	747.419
1959.99	736.862
1961.47	742.305
1962.95	720.891
1964.43	747.763
1965.91	739.778
1967.39	746.649
1968.86	740.95
1970.34	744.965
1971.82	727.265
1973.3	738.994
1974.77	739.866
1976.25	724.166
1977.73	742.752
1979.2	730.767
1980.68	751.924
1982.15	734.511
1983.63	723.668
1985.1	731.397
1986.58	736.84
1988.05	735.712
1989.53	736.584
1991	742.885
1992.47	740.614
1993.95	729.2
1995.42	735.214
1996.89	731.515
1998.37	743.529
1999.84	738.687
2001.31	736.987
2002.78	727.288
2004.25	733.588
2005.73	739.888
2007.2	720.475
2008.67	732.489
2010.14	737.647
2011.61	735.09
2013.08	738.533
2014.55	739.405
2016.02	739.42
2017.49	752.292
2018.96	734.878
2020.42	740.607
2021.89	736.907
2023.36	745.779
2024.83	726.651
2026.3	716.38
2027.76	739.252
2029.23	732.409
2030.7	727.281
2032.16	739.01
2033.63	717.882
2035.09	727.039
2036.56	732.768
2038.03	752.211
2039.49	734.512
2040.96	718.527
2042.42	743.97
2043.88	741.127
2045.35	737.713
2046.81	737.442
2048.28	714.886
2049.74	720.615
2051.2	732.629
2052.67	746.644
2054.13	734.373
2055.59	727.816
2057.05	735.545
2058.51	735.846
2059.97	733.003
2061.43	729.589
2062.9	725.318
2064.36	715.619
2065.82	734.49
2067.28	728.505
2068.74	735.663
2070.2	736.534
2071.65	743.121
2073.11	735.421
2074.57	735.721
2076.03	723.736
2077.49	737.179
2078.95	730.908
2080.4	730.923
2081.86	729.509
2083.32	730.667
2084.78	722.11
2086.23	729.839
2087.69	730.996
2089.15	716.154
2090.6	723.026
2092.05	724.183
2093.51	725.055
2094.97	714.784
2096.42	726.227
2097.87	727.385
2099.33	731.971
2100.78	725.414
2102.24	728.286
2103.69	720.015
2105.14	727.173
2106.6	727.473
2108.05	701.488
2109.5	722.074
2110.95	734.66
2112.4	717.817
2113.86	723.261
2115.31	716.418
2116.76	724.719
2118.21	715.59
2119.66	715.605
2121.11	702.191
2122.56	717.92
2124.01	721.078
2125.46	722.807
2126.91	722.821
2128.35	714.265
2129.8	714.565
2131.25	708.58
2132.7	727.166
2134.15	705.752
2135.59	721.767
2137.04	718.638
2138.49	722.939
2139.94	718.096
2141.38	718.968
2142.83	717.84
2144.27	712.998
2145.72	711.012
2147.16	717.027
2148.61	716.47
2150.05	723.913
2151.5	715.071
2152.94	717.943
2154.39	716.529
2155.83	722.544
2157.27	719.13
2158.72	714.287
2160.16	715.159
2161.6	718.602
2163.05	717.188
2164.49	725.489
2165.93	725.789
2167.37	722.661
2168.81	721.819
2170.26	719.262
2171.7	717.562
2173.14	706.148
2174.58	717.02
2176.02	711.035
2177.46	728.192
2178.9	720.207
2180.34	709.65
2181.77	723.951
2183.21	705.108
2184.65	728.266
2186.09	717.995
2187.53	716.295
2188.97	715.453
2190.4	712.039
2191.84	712.911
2193.28	720.354
2194.71	714.083
2196.15	709.526
2197.59	708.969
2199.02	718.127
2200.46	716.427
2201.89	707.585
2203.33	713.885
2204.76	717.9
2206.2	699.629
2207.63	719.358
2209.07	702.801
2210.5	706.53
2211.93	689.402
2213.37	702.274
2214.8	708.86
2216.23	700.303
2217.67	706.032
2219.1	692.333
2220.53	689.776
2221.96	688.648
2223.39	696.662
2224.82	700.677
2226.26	697.549
2227.69	680.706
2229.12	691.864
2230.55	696.45
2231.98	692.179
2233.41	692.765
2234.84	692.208
2236.26	686.794
2237.69	689.381
2239.12	679.681
2240.55	687.696
2241.98	685.71
2243.41	681.725
2244.83	692.883
2246.26	676.612
2247.69	679.483
2249.11	682.355
2250.54	683.227
2251.97	683.242
2253.39	670.113
2254.82	672.414
2256.24	684.714
2257.67	669.586
2259.09	676.458
2260.52	683.044
2261.94	674.202
2263.37	681.359
2264.79	672.231
2266.22	678.531
2267.64	672.546
2269.06	681.703
2270.49	673.433
2271.91	682.019
2273.33	674.319
2274.75	675.191
2276.18	687.491
2277.59	686.935
2279.02	675.806
2280.44	677.25
2281.86	672.407
2283.28	685.85
2284.7	679.008
2286.12	677.023
2287.54	681.323
2288.96	688.481
2290.38	669.924
2291.8	675.939
2293.22	678.525
2294.63	681.396
2296.05	681.411
2297.47	690.854
2298.89	686.869
2300.31	669.741
2301.72	678.613
2303.14	687.77
2304.56	685.214
2305.97	688.371
2307.39	685.243
2308.81	674.686
2310.22	686.129
2311.64	677.287
2313.05	680.444
2314.47	679.602
2315.88	691.617
2317.3	686.774
2318.71	692.217
2320.12	682.518
2321.54	682.247
2322.95	677.404
2324.36	695.705
2325.78	676.291
2327.19	672.306
2328.6	688.32
2330.01	691.478
2331.43	692.921
2332.84	684.079
2334.25	676.379
2335.66	670.394
2337.07	677.266
2338.48	678.709
2339.89	675.581
2341.3	672.452
2342.71	681.039
2344.12	674.196
2345.53	668.782
2346.94	691.654
2348.35	681.954
2349.76	674.255
2351.17	694.555
2352.57	674.57
2353.98	676.013
2355.39	672.028
2356.8	665.757
2358.2	664.914
2359.61	670.643
2361.02	656.944
2362.42	664.958
2363.83	674.402
2365.23	665.845
2366.64	662.431
2368.04	668.16
2369.45	666.175
2370.85	676.761
2372.26	667.061
2373.66	658.219
2375.07	655.662
2376.47	660.819
2377.87	669.12
2379.28	665.42
2380.68	669.721
2382.08	662.307
2383.49	668.321
2384.89	668.622
2386.29	669.208
2387.69	663.794
2389.09	648.952
2390.49	651.252
2391.9	653.838
2393.3	662.138
2394.7	652.153
2396.1	659.311
2397.5	661.897
2398.9	661.626
2400.29	661.355
2401.69	649.084
2403.09	649.67
2404.49	654.827
2405.89	653.699
2407.29	648.857
2408.69	662.871
2410.08	657.458
2411.48	663.472
2412.88	658.058
2414.28	665.502
2415.67	660.945
2417.07	658.388
2418.47	654.974
2419.86	658.989
2421.26	639.575
2422.65	653.875
2424.05	652.747
2425.44	663.048
2426.84	660.491
2428.23	660.791
2429.62	657.092
2431.02	660.249
2432.41	660.264
2433.81	667.707
2435.2	640.293
2436.59	655.165
2437.98	638.608
2439.38	660.337
2440.77	660.066
2442.16	659.795
2443.55	664.381
2444.94	672.967
2446.34	665.554
2447.73	665.283
2449.12	664.44
2450.51	659.026
2451.9	661.327
2453.29	663.627
2454.68	657.356
2456.07	667.085
2457.46	677.1
2458.84	681.4
2460.23	666.557
2461.62	672.572
2463.01	673.73
2464.4	663.459
2465.78	671.473
2467.17	660.345
2468.56	657.503
2469.95	673.232
2471.33	666.675
2472.72	665.547
2474.1	669.276
2475.49	665.862
2476.88	671.305
2478.26	663.32
2479.65	672.192
2481.03	663.921
2482.42	681.935
2483.8	669.093
2485.19	674.25
2486.57	677.979
2487.95	673.137
2489.34	669.152
2490.72	661.166
2492.1	664.61
2493.49	667.196
2494.87	669.496
2496.25	676.368
2497.63	674.668
2499.01	653.826
2500.39	679.841
2501.77	668.427
2503.16	662.727
2504.54	671.599
2505.92	664.471
2507.3	663.628
2508.68	669.643
2510.06	663.943
2511.44	662.815
2512.81	679.116
2514.19	666.559
2515.57	666.574
2516.95	666.017
2518.33	667.174
2519.71	659.475
2521.08	653.775
2522.46	669.218
2523.84	664.376
2525.22	648.676
2526.59	656.977
2527.97	653.563
2529.35	659.006
2530.72	655.878
2532.1	659.321
2533.47	654.479
2534.85	656.208
2536.22	669.079
2537.6	668.523
2538.97	658.252
2540.35	664.552
2541.72	669.424
2543.09	664.01
2544.47	668.882
2545.84	647.754
2547.21	669.483
2548.59	648.069
2549.96	664.083
2551.33	655.812
2552.7	656.399
2554.08	656.699
2555.45	657.571
2556.82	652.443
2558.19	668.172
2559.56	654.186
2560.93	649.629
2562.3	651.073
2563.67	659.087
2565.04	656.245
2566.41	662.26
2567.78	659.989
2569.15	653.718
2570.52	648.304
2571.89	666.89
2573.25	668.047
2574.62	641.491
2575.99	655.505
2577.36	659.234
2578.73	652.677
2580.09	648.121
2581.46	656.993
2582.83	647.864
2584.19	653.879
2585.56	663.894
2586.93	664.48
2588.29	669.066
2589.66	662.509
2591.02	648.81
2592.39	655.11
2593.75	658.553
2595.12	671.711
2596.48	670.868
2597.84	658.597
2599.21	662.326
2600.57	661.198
2601.93	659.213
2603.3	660.085
2604.66	654.099
2606.02	658.685
2607.39	669.272
2608.75	654.429
2610.11	662.729
2611.47	653.03
2612.83	677.902
2614.19	674.202
2615.55	673.931
2616.91	673.374
2618.27	676.532
2619.63	666.261
2620.99	666.561
2622.35	682.29
2623.71	670.591
2625.07	670.034
2626.43	665.763
2627.79	660.349
2629.15	674.078
2630.51	678.093
2631.86	656.679
2633.22	669.265
2634.58	664.708
2635.94	672.723
2637.29	662.452
2638.65	671.609
2640.01	669.91
2641.36	661.067
2642.72	675.653
2644.08	674.239
2645.43	667.683
2646.79	656.554
2648.14	675.141
2649.49	674.155
2650.85	669.456
2652.2	666.327
2653.56	660.628
2654.91	658.357
2656.26	664.943
2657.62	668.672
2658.97	660.401
2660.32	668.701
2661.68	662.716
2663.03	671.588
2664.38	662.174
2665.73	659.331
2667.09	664.489
2668.44	662.218
2669.79	661.947
2671.14	660.819
2672.49	663.405
2673.84	649.991
2675.19	667.434
2676.54	666.02
2677.89	669.749
2679.24	660.05
2680.59	661.207
2681.94	650.936
2683.29	662.665
2684.63	657.823
2685.98	668.98
2687.33	662.995
2688.68	675.295
2690.03	659.31
2691.37	679.61
2692.72	657.339
2694.07	673.068
2695.41	666.512
2696.76	664.526
2698.11	653.398
2699.45	657.413
2700.8	662.285
2702.14	662.585
2703.49	656.885
2704.83	655.472
2706.18	661.486
2707.52	664.644
2708.87	661.516
2710.21	656.387
2711.55	659.831
2712.9	647.845
2714.24	661.574
2715.58	669.303
2716.93	667.604
2718.27	661.333
2719.61	670.776
2720.95	658.505
2722.3	654.52
2723.64	645.963
2724.98	658.263
2726.32	675.135
2727.66	666.293
2729	653.45
2730.34	658.608
2731.68	648.908
2733.02	655.78
2734.36	658.652
2735.7	658.381
2737.04	676.11
2738.38	668.696
2739.72	670.425
2741.06	658.154
2742.39	655.883
2743.73	671.04
2745.07	659.341
2746.41	657.355
2747.74	661.656
2749.08	651.956
2750.42	673.971
2751.75	649.985
2753.09	660
2754.43	665.443
2755.76	678.601
2757.1	671.473
2758.43	661.202
2759.77	664.931
2761.1	651.231
2762.44	658.103
2763.77	670.689
2765.11	658.418
2766.44	668.147
2767.78	653.305
2769.11	671.033
2770.44	663.334
2771.78	668.777
2773.11	673.078
2774.44	663.092
2775.77	680.535
2777.11	663.979
2778.44	652.279
2779.77	659.722
2781.1	662.594
2782.43	662.037
2783.76	670.624
2785.09	659.21
2786.42	664.367
2787.76	655.239
2789.08	677.825
2790.41	679.84
2791.74	670.426
2793.07	666.441
2794.4	671.027
2795.73	659.899
2797.06	665.627
2798.39	671.357
2799.72	660.514
2801.04	665.672
2802.37	677.972
2803.7	660.272
2805.03	664.287
2806.35	674.302
2807.68	666.316
2809.01	666.331
2810.33	679.489
2811.66	668.646
2812.98	674.661
2814.31	664.104
2815.63	668.119
2816.96	660.133
2818.28	667.862
2819.61	661.02
2820.94	676.463
2822.26	670.764
2823.58	671.635
2824.91	687.936
2826.23	663.951
2827.55	669.108
2828.88	680.266
2830.2	675.709
2831.52	667.152
2832.84	668.595
2834.16	667.753
2835.49	673.196
2836.81	671.782
2838.13	680.654
2839.45	677.526
2840.77	681.255
2842.09	679.27
2843.41	679.284
2844.73	677.87
2846.05	685.028
2847.37	684.757
2848.69	685.343
2850.01	691.929
2851.33	691.944
2852.65	685.101
2853.97	686.259
2855.29	683.988
2856.6	693.145
2857.92	687.732
2859.24	702.603
2860.56	696.332
2861.87	697.49
2863.19	700.647
2864.51	697.519
2865.82	695.82
2867.14	704.406
2868.46	711.563
2869.77	711.292
2871.09	700.735
2872.4	713.893
2873.72	705.908
2875.03	719.637
2876.35	703.366
2877.66	712.237
2878.98	726.538
2880.29	719.124
2881.6	725.139
2882.92	744.582
2884.23	734.882
2885.54	745.754
2886.86	752.626
2888.17	733.498
2889.48	750.941
2890.79	744.956
2892.1	749.827
2893.42	760.699
2894.73	767.857
2896.04	747.872
2897.35	742.743
2898.66	768.187
2899.97	765.058
2901.28	764.216
2902.59	744.516
2903.9	760.817
2905.21	764.831
2906.52	771.703
2907.83	764.289
2909.14	760.875
2910.45	757.176
2911.76	766.048
2913.06	750.92
2914.37	765.22
2915.68	776.663
2916.99	748.392
2918.29	744.169
2919.6	787.32
2920.91	773.744
2922.21	769.328
2923.52	780.504
2924.83	763.06
2926.13	772.908
2927.44	781.128
2928.74	782.31
2930.05	771.557
2931.35	761.693
2932.66	778.416
2933.96	780.581
2935.27	799.933
2936.57	780.537
2937.88	776.802
2939.18	786.92
2940.48	781.671
2941.79	789.053
2943.09	788.507
2944.39	790.401
2945.69	780.281
2946.99	789.776
2948.3	787.055
2949.6	786.427
2950.9	771.709
2952.2	789.892
2953.5	783.058
2954.8	770.505
2956.1	772.819
2957.4	760.259
2958.7	756.868
2960	768.467
2961.3	752.693
2962.6	763.502
2963.9	738.648
2965.2	745.455
2966.5	736.458
2967.8	745.741
2969.1	730.031
2970.4	742.849
2971.69	725.69
2972.99	731.914
2974.29	739.476
2975.59	720.07
2976.88	725.755
2978.18	728.574
2979.48	733.631
2980.77	727.675
2982.07	720.735
2983.36	719.725
2984.66	732.393
2985.95	732.35
2987.25	724.209
2988.55	722.09
2989.84	718.818
2991.13	709.771
2992.43	711.241
2993.72	717.956
2995.02	703.112
2996.31	710.666
2997.6	699.744
2998.9	713.229
3000.19	706.939
3001.48	705.817
3002.77	691.099
3004.07	702.667
3005.36	692.793
3006.65	689.221
3007.94	687.947
3009.23	690.361
3010.53	688.96
3011.82	691.736
3013.11	690.64
3014.4	702.723
3015.69	671.699
3016.98	691.265
3018.27	689.338
3019.56	688.754
3020.85	697.99
3022.13	681.459
3023.42	692.059
3024.71	688.003
3026	689.82
3027.29	686.457
3028.58	680.066
3029.86	695.492
3031.15	696.237
3032.44	695.606
3033.73	697.056
3035.01	690.731
3036.3	705.073
3037.58	692.626
3038.87	696.056
3040.16	696.688
3041.44	687.24
3042.73	692.226
3044.01	696.009
3045.3	696.688
3046.58	708.579
3047.87	683.74
3048.04	679.457
3049.33	698.947
3050.62	716.437
3051.91	711.427
3053.2	708.417
3054.49	701.908
3055.77	711.398
3057.06	687.888
3058.35	723.878
3059.64	704.869
3060.93	691.359
3062.22	719.849
3063.51	703.339
3064.79	706.329
3066.08	698.32
3067.37	702.31
3068.66	717.8
3069.94	710.79
3071.23	713.281
3072.52	705.771
3073.8	725.261
3075.09	713.751
3076.37	714.742
3077.66	711.732
3078.94	715.722
3080.23	716.712
3081.51	715.202
3082.8	730.693
3084.08	740.683
3085.37	715.673
3086.65	722.663
3087.94	720.654
3089.22	730.144
3090.5	734.134
3091.78	740.624
3093.07	715.614
3094.35	731.605
3095.63	726.095
3096.91	735.085
3098.2	730.075
3099.48	740.066
3100.76	736.056
3102.04	739.046
3103.32	739.536
3104.6	742.026
3105.88	743.017
3107.16	733.507
3108.44	746.497
3109.72	754.987
3111	743.478
3112.28	772.468
3113.56	754.458
3114.84	775.448
3116.12	770.938
3117.4	757.429
3118.68	764.419
3119.96	769.409
3121.23	776.399
3122.51	777.89
3123.79	757.88
3125.07	772.37
3126.34	790.86
3127.62	785.85
3128.9	775.841
3130.18	781.331
3131.45	786.821
3132.73	794.811
3134	783.802
3135.28	799.292
3136.55	816.282
3137.83	797.772
3139.1	793.762
3140.38	812.253
3141.65	805.743
3142.93	825.233
3144.2	805.223
3145.47	819.214
3146.75	829.704
3148.02	812.194
3149.29	825.684
3150.57	828.674
3151.84	820.665
3153.11	842.155
3154.39	835.145
3155.66	823.635
3156.93	841.626
3158.2	857.116
3159.47	836.606
3160.74	847.596
3162.01	833.087
3163.28	830.077
3164.56	857.067
3165.83	860.057
3167.1	849.547
3168.37	851.038
3169.64	865.528
3170.91	860.518
3172.18	839.008
3173.44	862.999
3174.71	853.989
3175.98	868.979
3177.25	863.969
3178.52	870.959
3179.79	880.95
3181.05	864.94
3182.32	862.43
3183.59	873.92
3184.86	873.411
3186.12	901.401
3187.39	871.391
3188.66	880.381
3189.92	872.871
3191.19	900.862
3192.45	895.852
3193.72	871.842
3194.98	886.332
3196.25	895.323
3197.51	889.813
3198.78	893.803
3200.04	906.293
3201.31	888.784
3202.57	891.774
3203.84	897.764
3205.1	891.254
3206.36	895.744
3207.63	893.735
3208.89	899.225
3210.15	875.215
3211.41	895.705
3212.68	878.696
3213.94	913.686
3215.2	897.176
3216.46	901.166
3217.72	910.656
3218.99	917.647
3220.25	895.637
3221.51	895.127
3222.77	888.617
3224.03	877.108
3225.29	923.098
3226.55	914.588
3227.81	914.578
3229.07	905.568
3230.33	909.059
3231.59	877.549
3232.84	913.539
3234.1	907.029
3235.36	911.52
3236.62	875.51
3237.88	902
3239.13	928.49
3240.39	902.98
3241.65	909.471
3242.91	906.461
3244.16	900.951
3245.42	912.941
3246.68	907.432
3247.93	923.422
3249.19	886.412
3250.45	903.402
3251.7	899.392
3252.96	923.883
3254.21	923.373
3255.47	927.863
3256.72	913.853
3257.98	895.344
3259.23	919.834
3260.49	899.324
3261.74	900.814
3262.99	916.804
3264.25	915.295
3265.5	900.785
3266.75	921.775
3268	917.765
3269.26	901.256
3270.51	917.746
3271.76	888.736
3273.02	925.226
3274.27	916.717
3275.52	913.707
3276.77	931.197
3278.02	898.687
3279.27	928.177
3280.52	907.168
3281.77	897.658
3283.02	905.648
3284.27	906.638
3285.52	910.629
3286.77	908.119
3288.02	927.609
3289.27	910.099
3290.52	942.089
3291.77	915.08
3293.02	915.57
3294.27	906.06
3295.51	914.55
3296.76	902.041
3298.01	917.531
3299.26	902.521
3300.5	883.511
3301.75	914.001
3303	935.992
3304.24	917.482
3305.49	925.972
3306.74	918.462
3307.99	924.453
3309.23	909.943
3310.48	928.933
3311.72	919.423
3312.97	938.413
3314.21	914.404
3315.46	920.394
3316.7	925.884
3317.94	922.874
3319.19	912.865
3320.43	924.855
3321.68	905.345
3322.92	927.835
3324.16	899.325
3325.41	923.816
3326.65	940.306
3327.89	926.796
3329.13	898.286
3330.38	930.277
3331.62	944.767
3332.86	918.257
3334.1	906.747
3335.34	899.737
3336.58	916.728
3337.83	915.218
3339.07	939.708
3340.31	922.698
3341.55	951.689
3342.79	925.679
3344.03	928.669
3345.27	925.659
3346.51	931.65
3347.75	937.64
3348.99	929.63
3350.22	903.62
3351.46	898.61
3352.7	904.101
3353.94	923.591
3355.18	918.581
3356.42	936.071
3357.65	925.062
3358.89	923.552
3360.13	924.542
3361.36	940.032
3362.6	906.522
3363.84	926.513
3365.07	927.503
3366.31	920.993
3367.55	913.983
3368.78	948.974
3370.02	932.964
3371.25	918.454
3372.49	923.444
3373.72	928.434
3374.96	944.425
3376.19	937.915
3377.43	920.405
3378.66	918.395
3379.89	933.886
3381.13	923.376
3382.36	895.866
3383.59	927.356
3384.83	932.846
3386.06	933.337
3387.29	917.827
3388.52	944.817
3389.76	928.807
3390.99	923.297
3392.22	944.288
3393.45	932.278
3394.68	909.768
3395.91	922.758
3397.15	932.749
3398.38	927.739
3399.61	928.229
3400.84	942.219
3402.07	928.71
3403.3	916.2
3404.53	965.69
3405.76	922.18
3406.99	930.67
3408.21	949.161
3409.44	935.151
3410.67	922.141
3411.9	939.131
3413.13	924.622
3414.36	938.112
3415.58	934.102
3416.81	934.092
3418.04	933.082
3419.27	943.073
3420.49	938.563
3421.72	934.053
3422.95	940.543
3424.17	947.534
3425.4	944.024
3426.62	931.514
3427.85	946.004
3429.08	946.995
3430.3	950.485
3431.53	922.475
3432.75	942.465
3433.98	949.455
3435.2	956.946
3436.42	945.436
3437.65	932.426
3438.87	935.916
3440.1	930.906
3441.32	935.897
3442.54	948.887
3443.76	938.377
3444.99	931.867
3446.21	919.358
3447.43	936.348
3448.66	930.838
3449.88	920.828
3451.1	926.819
3452.32	935.809
3453.54	930.299
3454.76	935.289
3455.98	915.779
3457.21	931.27
3458.43	934.76
3459.65	919.25
3460.87	919.74
3462.09	920.231
3463.3	927.221
3464.53	902.211
3465.74	914.201
3466.96	904.691
3468.18	902.182
3469.4	892.172
3470.62	897.662
3471.84	907.652
3473.06	908.643
3474.27	911.633
3475.49	893.123
3476.71	888.113
3477.93	900.603
3479.14	892.594
3480.36	885.084
3481.58	894.574
3482.79	902.064
3484.01	881.555
3485.22	892.045
3486.44	865.035
3487.66	860.525
3488.87	884.016
3490.09	885.506
3491.3	858.496
3492.52	882.986
3493.73	856.476
3494.95	869.467
3496.16	866.457
3497.37	856.447
3498.59	844.937
3499.8	851.927
3501.01	825.418
3502.23	842.408
3503.44	837.898
3504.65	853.388
3505.87	843.879
3507.08	821.369
3508.29	827.359
3509.5	818.349
3510.71	822.34
3511.93	815.33
3513.14	808.32
3514.35	801.31
3515.56	809.8
3516.77	788.791
3517.98	794.781
3519.19	783.271
3520.4	796.761
3521.61	803.252
3522.82	794.742
3524.03	780.232
3525.24	767.222
3526.45	771.712
3527.66	752.203
3528.86	782.193
3530.07	772.183
3531.28	781.673
3532.49	764.164
3533.7	770.654
3534.9	759.644
3536.11	750.134
3537.32	764.624
3538.53	749.615
3539.73	770.605
3540.94	731.595
3542.15	752.585
3543.35	750.576
3544.56	753.066
3545.76	734.056
3546.97	718.546
3548.18	738.536
3549.38	731.027
3550.59	738.517
3551.79	719.507
3553	719.497
3554.2	710.488
3555.4	717.478
3556.61	725.968
3557.81	715.958
3559.02	713.448
3560.22	719.439
3561.42	719.929
3562.62	708.919
3563.83	705.909
3565.03	702.4
3566.23	716.89
3567.44	718.88
3568.64	713.87
3569.84	707.86
3571.04	701.851
3572.24	691.341
3573.44	689.331
3574.64	706.321
3575.84	701.312
3577.04	694.802
3578.25	677.292
3579.45	686.782
3580.65	690.272
3581.84	690.263
3583.04	668.753
3584.24	678.243
3585.44	677.733
3586.64	690.224
3587.84	648.714
3589.04	684.204
3590.24	688.194
3591.44	696.685
3592.63	655.175
3593.83	680.665
3595.03	675.155
3596.23	674.145
3597.42	678.636
3598.62	677.626
3599.82	662.616
3601.01	663.606
3602.21	655.597
3603.41	666.087
3604.6	651.077
3605.8	661.067
3606.99	663.057
3608.19	670.048
3609.38	659.538
3610.58	647.028
3611.77	668.018
3612.97	651.009
3614.16	641.499
3615.36	652.989
3616.55	633.979
3617.74	658.969
3618.94	647.46
3620.13	651.95
3621.32	632.44
3622.52	646.93
3623.71	633.421
3624.9	630.911
3626.09	625.901
3627.29	630.391
3628.48	626.382
3629.67	637.372
3630.86	615.862
3632.05	630.852
3633.24	622.842
3634.44	615.833
3635.63	629.323
3636.82	619.313
3638.01	618.803
3639.2	616.293
3640.39	607.784
3641.58	617.274
3642.77	601.264
3643.95	627.754
3645.15	603.245
3646.33	606.235
3647.52	586.725
3648.71	591.715
3649.9	601.206
3651.09	582.196
3652.28	586.186
3653.46	584.176
3654.65	593.166
3655.84	584.657
3657.03	566.147
3658.21	575.137
3659.4	579.627
3660.58	575.617
3661.77	558.608
3662.96	574.098
3664.14	571.588
3665.33	566.078
3666.52	555.069
3667.7	572.059
3668.89	549.049
3670.07	554.539
3671.25	544.03
3672.44	557.02
3673.62	554.01
3674.81	556.5
3675.99	557.49
3677.18	541.481
3678.36	539.471
3679.54	522.961
3680.73	534.951
3681.91	528.942
3683.09	530.432
3684.27	524.422
3685.46	528.912
3686.64	522.902
3687.82	521.393
3689	521.883
3690.19	524.373
3691.37	531.863
3692.55	526.854
3693.73	522.344
3694.91	522.334
3696.09	527.324
3697.27	523.314
3698.45	512.805
3699.63	500.795
3700.81	527.285
3701.99	521.775
3703.17	518.266
3704.35	524.256
3705.53	505.746
3706.71	513.736
3707.89	520.227
3709.06	509.717
3710.24	511.207
3711.42	512.697
3712.6	520.687
3713.78	510.678
3714.95	503.668
3716.13	492.158
3717.31	517.148
3718.48	492.639
3719.66	507.629
3720.84	530.119
3722.01	510.609
3723.19	512.099
3724.37	518.09
3725.54	503.08
3726.72	509.57
3727.89	512.06
3729.07	516.551
3730.24	512.041
3731.42	504.031
3732.59	495.021
3733.77	505.011
3734.94	525.002
3736.12	501.492
3737.29	510.982
3738.46	510.472
3739.64	510.963
3740.81	513.453
3741.98	508.443
3743.15	517.933
3744.33	499.923
3745.5	512.414
3746.67	511.404
3747.84	521.894
3749.02	500.884
3750.19	516.875
3751.36	504.365
3752.53	515.855
3753.7	521.845
3754.87	518.335
3756.04	507.326
3757.21	519.816
3758.38	532.806
3759.55	503.796
3760.72	507.787
3761.89	507.277
3763.06	496.767
3764.23	504.257
3765.4	513.747
3766.57	517.238
3767.74	496.728
3768.91	513.218
3770.08	483.708
3771.24	507.699
3772.41	526.689
3773.58	518.679
3774.75	511.169
3775.91	515.66
3777.08	514.65
3778.25	504.14
3779.41	499.63
3780.58	504.12
3781.75	514.111
3782.91	500.101
3784.08	514.591
3785.25	512.081
3786.41	524.072
3787.58	518.062
3788.74	521.052
3789.91	514.042
3791.07	507.032
3792.24	506.523
3793.4	503.513
3794.57	509.003
3795.73	510.493
3796.89	501.484
3798.06	516.474
3799.22	505.964
3800.38	503.954
3801.55	503.444
3802.71	500.935
3803.87	491.925
3805.03	507.915
3806.2	509.405
3807.36	505.396
3808.52	506.886
3809.68	508.376
3810.84	506.366
3812.01	511.856
3813.17	524.847
3814.33	503.837
3815.49	494.827
3816.65	496.817
3817.81	480.808
3818.97	517.798
3820.13	516.288
3821.29	514.278
3822.45	505.268
3823.61	493.259
3824.77	493.749
3825.93	507.739
3827.09	500.729
3828.24	512.22
3829.4	497.21
3830.56	499.2
3831.72	511.69
3832.88	505.18
3834.04	493.171
3835.19	511.661
3836.35	502.151
3837.51	507.141
3838.66	485.632
3839.82	502.122
3840.98	514.612
3842.13	506.602
3843.29	515.092
3844.45	512.083
3845.6	503.073
3846.76	504.063
3847.91	490.053
3849.07	505.044
3850.22	505.034
3851.38	510.024
3852.53	505.514
3853.69	503.005
3854.84	508.495
3856	508.485
3857.15	506.975
3858.3	508.465
3859.46	506.456
3860.61	498.446
3861.76	507.936
3862.92	505.426
3864.07	512.917
3865.22	505.907
3866.37	509.897
3867.53	503.387
3868.68	511.877
3869.83	532.368
3870.98	506.358
3872.13	511.348
3873.28	527.338
3874.43	515.329
3875.59	506.319
3876.74	517.309
3877.89	521.299
3879.04	511.789
3880.19	528.78
3881.34	529.27
3882.49	524.76
3883.64	527.75
3884.79	537.241
3885.93	519.231
3887.08	515.221
3888.23	505.211
3889.38	526.201
3890.53	533.192
3891.68	518.682
3892.83	525.172
3893.97	530.662
3895.12	516.153
3896.27	524.643
3897.41	529.633
3898.56	539.123
3899.71	546.113
3900.86	530.104
3902	521.094
3903.15	533.584
3904.29	533.074
3905.44	531.065
3906.59	525.555
3907.73	545.545
3908.88	543.535
3910.02	535.525
3911.17	558.516
3912.31	544.506
3913.46	555.496
3914.6	535.486
3915.75	543.477
3916.89	536.467
3918.03	533.957
3919.18	567.447
3920.32	542.938
3921.46	547.928
3922.61	545.418
3923.75	570.908
3924.89	545.398
3926.03	549.389
3927.18	553.379
3928.32	542.869
3929.46	555.859
3930.6	547.35
3931.74	546.84
3932.89	565.83
3934.03	557.82
3935.17	566.31
3936.31	556.801
3937.45	544.791
3938.59	556.281
3939.73	553.271
3940.87	542.262
3942.01	549.252
3943.15	550.242
3944.29	547.232
3945.43	552.222
3946.57	538.713
3947.71	563.203
3948.84	545.193
3949.98	559.683
3951.12	538.674
3952.26	556.164
3953.4	551.154
3954.54	564.144
3955.67	547.134
3956.81	560.625
3957.95	547.615
3959.09	556.105
3960.22	559.595
3961.36	568.086
3962.5	567.076
3963.63	552.066
3964.77	554.056
3965.9	558.546
3967.04	566.037
3968.18	546.027
3969.31	554.517
3970.45	556.007
3971.58	553.998
3972.72	564.488
3973.85	561.978
3974.99	540.968
3976.12	579.458
3977.25	554.449
3978.39	582.439
3979.52	561.429
3980.65	575.419
3981.79	562.41
3982.92	574.9
3984.05	556.39
3985.19	570.88
3986.32	561.37
3987.45	563.861
3988.58	557.851
3989.72	562.341
3990.85	576.331
3991.98	574.822
3993.11	569.312
3994.24	579.302
3995.37	565.792
3996.5	571.783
3997.64	563.273
3998.77	546.763
3999.9	578.753
