#Acq. time (s)=	20
#Accumulations=	8
#Range (cm-¹)=	50...4000
#Windows=	3
#Autofocus=	Off
#AutoExposure=	Off
#Spike filter=	Multiple accum.
#Delay time (s)=	0
#Binning=	1
#Readout mode=	Signal
#DeNoise=	Off
#ICS correction=	Off
#Dark correction=	Off
#Inst. Process=	Off
#Instrument=	LabRAM HR Evol
#Detector=	Syncerity OE
#Objective=	x100_VIS
#Grating=	600 (500nm)
#ND Filter=	5%
#Laser=	532nm_Edge
#Hole=	100.021
#Range=	Visible
#Project=	Omar
#Sample=	120523
#Site=	ap
#Title=	mz
#Remark=	5 laser intensity
#Date=	12.05.2023 17:01
#Acquired=	12.05.2023 17:01:16
51.0297	26.5714
52.8754	31.663
54.7185	34.7545
56.5635	36.9889
58.406	52.9376
60.2502	80.6006
62.0919	110.264
63.9355	145.355
65.7765	179.018
67.6193	214.395
69.4595	258.058
71.3016	300.578
73.1412	364.241
74.9825	413.619
76.8214	442.71
78.662	474.373
80.5001	496.608
82.34	524.556
84.1774	564.219
86.0166	569.311
87.8532	578.974
89.6917	602.351
91.5276	602.014
93.3632	599.391
95.2006	586.197
97.0355	588.717
98.8721	594.095
100.706	594.329
102.54	601.421
104.376	601.941
106.209	609.604
108.041	609.267
109.876	613.501
111.708	602.021
113.542	616.256
115.373	600.204
117.204	617.296
119.036	613.816
120.867	606.622
122.697	607.999
124.526	603.662
126.357	604.468
128.186	603.845
130.014	596.651
131.845	602.028
133.672	601.12
135.5	618.211
137.327	612.16
139.155	614.68
140.982	617.772
142.807	610.578
144.633	615.955
146.46	621.046
148.285	624.138
150.11	621.229
151.934	617.178
153.757	632.555
155.583	611.361
157.406	611.31
159.229	608.401
161.051	624.35
162.873	623.156
164.697	613.676
166.518	615.911
168.339	627.002
170.159	616.665
171.98	621.185
173.799	605.42
175.619	615.654
177.44	614.174
179.259	615.266
181.077	618.357
182.895	622.592
184.713	602.255
186.53	622.489
188.347	618.152
190.164	612.386
191.98	611.764
193.796	618.57
195.612	598.232
197.427	617.61
199.242	607.558
201.059	605.507
202.873	612.027
204.686	604.262
206.5	608.782
208.313	613.016
210.126	602.965
211.938	605.199
213.75	606.862
215.562	603.097
217.373	605.331
219.184	595.566
220.993	590.371
222.803	594.034
224.613	602.269
226.422	583.36
228.232	595.88
230.04	590.115
231.849	593.206
233.657	600.298
235.465	578.532
237.272	585.338
239.079	587.001
240.886	592.95
242.693	577.756
244.497	594.562
246.302	581.653
248.108	593.888
249.913	600.122
251.717	581.499
253.521	590.305
255.325	598.825
257.127	588.774
258.93	589.008
260.733	594.1
262.535	582.048
264.338	583.14
266.137	583.66
267.939	583.323
269.74	593.272
271.541	583.506
273.341	587.169
275.139	578.261
276.939	585.638
278.738	581.301
280.537	578.107
282.334	563.484
284.132	582.576
285.93	577.953
287.728	569.044
289.523	580.707
291.32	588.085
293.117	578.605
294.911	576.268
296.707	580.788
298.502	582.165
300.295	576.685
302.09	570.92
303.885	582.297
305.677	580.531
307.47	579.052
309.264	593
311.055	595.806
312.848	602.612
314.64	587.132
316.43	596.224
318.222	604.172
320.011	582.407
321.802	583.784
323.593	604.59
325.381	601.681
327.171	595.916
328.958	604.722
330.748	586.385
332.535	600.619
334.323	600.568
336.109	608.516
337.897	593.036
339.685	594.414
341.47	592.362
343.257	582.597
345.041	602.26
346.827	588.78
348.611	598.443
350.397	593.534
352.18	572.626
353.962	584.289
355.747	591.952
357.529	589.615
359.312	592.421
361.094	596.941
362.877	587.747
364.658	604.267
366.44	590.216
368.22	602.45
369.999	602.97
371.781	599.776
373.56	601.153
375.34	610.245
377.119	605.051
378.896	601.571
380.676	606.377
382.453	598.325
384.23	607.703
386.009	618.794
387.785	614.743
389.561	618.977
391.338	610.64
393.113	600.017
394.888	598.823
396.665	605.915
398.439	607.578
400.213	602.669
401.988	616.332
403.761	600.281
405.534	607.658
407.306	619.893
409.081	611.27
410.852	600.362
412.624	619.739
414.395	621.402
416.167	618.779
417.938	613.871
419.708	629.819
421.477	623.482
423.249	612.288
425.018	614.522
426.786	622.185
428.555	605.277
430.323	606.083
432.092	610.317
433.86	607.123
435.627	609.643
437.393	607.306
439.16	615.826
440.926	607.489
442.691	602.009
444.458	614.53
446.223	619.335
447.988	612.713
449.752	613.233
451.516	633.467
453.28	621.702
455.043	622.793
456.806	633.028
458.568	625.833
460.33	626.925
462.092	629.445
463.854	625.679
465.615	627.057
467.378	623.577
469.138	638.383
470.899	642.617
472.658	631.709
474.418	629.943
476.177	618.463
477.936	625.555
479.694	620.361
481.452	631.452
483.21	626.829
484.966	629.921
486.723	631.584
488.48	627.247
490.236	628.053
491.992	622.001
493.748	630.807
495.503	628.47
497.258	638.99
499.013	631.796
500.768	625.459
502.522	642.551
504.276	646.499
506.029	623.305
507.78	632.968
509.533	618.917
511.285	627.151
513.037	635.1
514.789	639.049
516.54	643.283
518.289	647.232
520.04	628.038
521.791	649.129
523.541	655.935
525.29	668.455
527.04	639.261
528.787	644.352
530.536	630.587
532.284	649.107
534.032	628.484
535.778	639.862
537.525	643.525
539.272	632.616
541.019	652.279
542.763	637.942
544.509	650.748
546.255	656.411
548	653.217
549.743	646.308
551.488	634.828
553.232	651.349
554.974	644.726
556.718	640.96
558.462	659.766
560.203	648
561.945	662.521
563.688	633.041
565.428	634.704
567.169	650.938
568.911	647.172
570.65	635.121
572.391	646.213
574.129	646.733
575.869	639.824
577.609	645.773
579.346	645.722
581.085	650.813
582.822	652.191
584.56	652.711
586.296	645.802
588.034	651.751
589.771	651.985
591.506	664.22
593.243	669.026
594.978	652.117
596.714	655.78
598.447	654.015
600.183	651.677
601.916	661.341
603.651	647.004
605.383	650.666
607.117	656.901
608.849	662.278
610.582	659.084
612.313	667.89
614.044	673.553
615.776	667.502
617.507	671.736
619.238	676.828
620.968	669.919
622.699	673.582
624.428	668.674
626.156	679.479
627.886	686.285
629.614	704.52
631.342	685.04
633.071	681.846
634.797	669.794
636.526	680.029
638.252	678.549
639.978	663.926
641.705	673.303
643.431	664.966
645.155	663.772
646.88	676.864
648.606	665.384
650.33	672.19
652.053	663.281
653.779	666.659
655.502	666.607
657.224	671.127
658.946	672.219
660.67	659.596
662.392	659.831
664.113	687.779
665.834	680.585
667.556	660.534
669.277	656.768
670.997	672.717
672.716	669.523
674.435	672.328
676.156	671.706
677.875	671.94
679.593	663.032
681.311	686.123
683.029	659.786
684.746	668.592
686.465	670.826
688.182	668.489
689.898	664.152
691.614	666.101
693.33	668.621
695.045	668.856
696.76	669.947
698.475	684.182
700.189	684.13
701.904	675.508
703.619	673.456
705.333	679.119
707.046	686.782
708.759	681.302
710.471	677.537
712.183	687.2
713.895	686.577
715.606	679.954
717.317	678.189
719.028	676.995
720.739	675.8
722.449	673.463
724.159	667.412
725.868	682.789
727.578	693.881
729.286	677.544
730.995	680.064
732.703	679.727
734.409	685.961
736.117	680.482
737.824	695.287
739.531	673.522
741.237	695.185
742.944	671.419
744.65	688.511
746.355	671.602
748.061	677.837
749.766	674.928
751.468	684.02
753.173	668.254
754.877	677.917
756.581	697.866
758.284	690.1
759.987	677.477
761.688	690.855
763.39	694.232
765.092	679.038
766.794	684.701
768.496	672.935
770.195	686.027
771.896	688.833
773.596	674.781
775.296	687.587
776.994	686.679
778.694	691.485
780.393	683.719
782.092	703.096
783.788	677.616
785.487	673.565
787.185	687.799
788.882	679.748
790.578	669.983
792.274	684.503
793.971	688.737
795.666	683.829
797.362	688.634
799.057	675.44
800.751	690.818
802.446	684.195
804.138	688.429
805.833	692.664
807.527	688.612
809.219	685.132
810.912	688.51
812.605	700.173
814.296	702.979
815.989	706.356
817.679	697.733
819.371	713.682
821.06	707.345
822.752	715.865
824.441	716.671
826.131	718.619
827.822	711.711
829.51	722.802
831.199	717.323
832.887	717.271
834.576	710.077
836.262	721.74
837.951	721.689
839.637	710.78
841.323	722.158
843.01	719.249
844.695	708.912
846.382	722.861
848.066	719.952
849.753	715.615
851.436	708.421
853.122	715.513
854.805	721.747
856.488	733.982
858.173	725.359
859.855	729.593
861.539	705.828
863.221	698.634
864.902	735.439
866.585	718.817
868.266	725.908
869.946	728.428
871.628	728.091
873.308	718.897
874.987	709.989
876.668	719.937
878.347	714.458
880.026	709.549
881.704	719.498
883.384	700.018
885.061	710.824
886.739	700.487
888.418	696.15
890.094	698.384
891.771	691.19
893.447	693.139
895.122	699.659
896.799	718.179
898.475	702.985
900.149	710.648
901.824	692.596
903.498	708.831
905.174	693.351
906.847	694.442
908.52	695.82
910.193	699.197
911.866	695.146
913.538	703.38
915.212	701.615
916.883	710.706
918.555	705.798
920.226	695.746
921.896	698.266
923.567	709.072
925.237	707.592
926.907	688.112
928.576	698.347
930.245	708.867
931.914	707.101
933.584	708.764
935.253	704.427
936.92	693.519
938.588	712.61
940.255	697.988
941.922	705.365
943.589	720.742
945.255	721.262
946.921	713.211
948.587	720.874
950.252	710.537
951.917	715.629
953.582	732.149
955.244	707.526
956.909	722.618
958.572	727.709
960.236	707.372
961.899	713.321
963.562	722.984
965.225	712.361
966.887	721.738
968.549	724.544
970.211	720.779
971.872	706.441
973.531	706.676
975.192	728.339
976.852	716.859
978.512	719.665
980.172	741.042
981.831	734.705
983.489	729.511
985.148	722.888
986.806	717.123
988.464	737.071
990.122	716.163
991.778	717.826
993.435	724.346
995.092	719.723
996.749	700.815
998.404	727.335
1000.06	728.426
1001.72	727.518
1003.37	727.467
1005.02	762.558
1006.68	748.507
1008.33	744.17
1009.99	727.547
1011.64	739.496
1013.29	732.302
1014.95	731.108
1016.6	716.485
1018.25	733.862
1019.9	729.239
1021.55	726.045
1023.2	735.422
1024.85	718.228
1026.51	731.605
1028.16	730.697
1029.81	731.503
1031.46	736.023
1033.1	727.115
1034.75	728.206
1036.4	729.583
1038.05	728.961
1039.7	718.052
1041.34	733.715
1042.99	726.807
1044.64	740.47
1046.29	724.133
1047.93	730.081
1049.58	739.173
1051.22	748.836
1052.87	760.213
1054.51	755.59
1056.16	757.253
1057.8	758.059
1059.45	744.579
1061.09	747.957
1062.73	748.477
1064.38	744.711
1066.02	748.66
1067.66	759.466
1069.3	765.414
1070.95	749.935
1072.59	766.74
1074.23	760.118
1075.87	752.638
1077.51	744.015
1079.15	753.678
1080.79	749.627
1082.43	763.861
1084.07	752.667
1085.71	761.187
1087.35	760.279
1088.99	750.799
1090.62	749.605
1092.26	747.839
1093.9	756.645
1095.53	748.308
1097.17	746.542
1098.81	760.777
1100.44	753.297
1102.08	740.103
1103.71	750.908
1105.35	752
1106.99	748.806
1108.62	746.469
1110.25	739.846
1111.89	747.795
1113.52	730.601
1115.15	747.692
1116.79	736.498
1118.42	749.304
1120.05	752.681
1121.68	746.344
1123.31	758.864
1124.95	739.67
1126.58	757.333
1128.21	760.71
1129.84	766.659
1131.47	759.179
1133.1	739.985
1134.73	757.076
1136.36	758.739
1137.98	752.117
1139.61	755.494
1141.24	763.157
1142.87	764.249
1144.5	758.483
1146.12	768.432
1147.75	789.523
1149.38	781.186
1151	796.563
1152.63	824.226
1154.26	839.318
1155.88	848.695
1157.51	849.215
1159.13	844.878
1160.76	825.684
1162.38	818.776
1164	798.439
1165.63	773.244
1167.25	787.479
1168.87	779.428
1170.49	753.091
1172.12	764.754
1173.74	773.274
1175.36	758.937
1176.98	767.742
1178.6	770.263
1180.22	763.926
1181.84	763.303
1183.46	762.109
1185.08	776.914
1186.7	785.72
1188.32	789.098
1189.94	791.046
1191.56	771.852
1193.18	775.801
1194.79	771.749
1196.41	763.698
1198.03	763.647
1199.64	755.024
1201.26	756.973
1202.88	769.779
1204.49	781.442
1206.11	770.819
1207.72	759.053
1209.34	763.859
1210.95	772.951
1212.57	756.614
1214.18	775.134
1215.8	765.94
1217.41	755.317
1219.02	741.837
1220.64	762.072
1222.25	759.449
1223.86	745.398
1225.47	763.06
1227.08	759.866
1228.69	753.529
1230.3	740.907
1231.92	750.855
1233.53	753.947
1235.14	743.61
1236.75	733.273
1238.35	754.364
1239.96	748.599
1241.57	744.833
1243.18	734.782
1244.79	752.159
1246.4	746.965
1248.01	752.342
1249.61	758.005
1251.22	758.811
1252.82	767.903
1254.43	747.851
1256.04	761.514
1257.64	775.463
1259.25	767.983
1260.85	755.075
1262.46	759.595
1264.06	757.258
1265.67	776.064
1267.27	767.726
1268.87	767.675
1270.48	771.338
1272.08	765.001
1273.68	767.807
1275.28	762.041
1276.89	771.704
1278.49	771.082
1280.09	761.602
1281.69	768.122
1283.29	749.785
1284.89	767.734
1286.49	749.682
1288.09	761.774
1289.69	769.58
1291.29	760.385
1292.89	762.334
1294.49	750.569
1296.09	774.517
1297.68	762.18
1299.28	765.557
1300.88	772.935
1302.48	750.026
1304.07	781.118
1305.67	769.924
1307.26	767.872
1308.86	772.678
1310.46	766.341
1312.05	758.29
1313.65	776.239
1315.24	775.616
1316.84	780.422
1318.43	783.228
1320.02	780.605
1321.62	765.982
1323.21	766.216
1324.8	761.308
1326.39	782.971
1327.99	765.491
1329.58	788.868
1331.17	783.674
1332.76	772.766
1334.35	775.572
1335.94	771.52
1337.53	772.612
1339.12	772.846
1340.71	753.366
1342.3	767.886
1343.89	775.835
1345.48	766.355
1347.07	780.018
1348.65	775.967
1350.24	755.059
1351.83	787.579
1353.42	784.385
1355	767.762
1356.59	782.853
1358.18	776.802
1359.76	764.179
1361.35	770.699
1362.93	778.077
1364.52	778.025
1366.1	772.26
1367.69	781.066
1369.27	781.014
1370.86	750.106
1372.44	770.055
1374.02	791.146
1375.61	754.809
1377.19	760.472
1378.77	786.992
1380.35	774.655
1381.93	776.318
1383.52	763.695
1385.1	770.501
1386.68	759.021
1388.26	784.399
1389.84	766.347
1391.42	776.296
1393	766.245
1394.58	779.908
1396.16	776.142
1397.74	772.376
1399.31	760.325
1400.89	771.417
1402.47	779.08
1404.05	781.314
1405.63	770.691
1407.2	779.211
1408.78	774.589
1410.36	777.966
1411.93	769.915
1413.51	782.435
1415.08	766.669
1416.66	789.475
1418.23	779.424
1419.81	771.944
1421.38	777.607
1422.95	776.127
1424.53	780.933
1426.1	776.31
1427.68	782.83
1429.25	768.779
1430.82	784.156
1432.39	787.248
1433.96	799.482
1435.54	772.859
1437.11	792.808
1438.68	792.185
1440.25	782.42
1441.82	780.083
1443.39	797.174
1444.96	785.694
1446.53	782.215
1448.1	782.163
1449.67	799.255
1451.23	786.346
1452.8	807.438
1454.37	798.529
1455.94	790.478
1457.5	810.427
1459.07	798.661
1460.64	802.039
1462.21	777.987
1463.77	792.793
1465.34	807.599
1466.9	788.69
1468.47	783.496
1470.03	789.159
1471.6	778.822
1473.16	781.342
1474.72	791.291
1476.29	779.24
1477.85	775.188
1479.42	782.851
1480.98	767.943
1482.54	779.034
1484.1	791.84
1485.66	762.075
1487.23	777.166
1488.79	777.401
1490.35	765.064
1491.91	774.441
1493.47	778.675
1495.03	779.195
1496.59	798.573
1498.15	792.236
1499.71	780.756
1501.27	782.705
1502.83	786.939
1504.39	791.173
1505.94	794.265
1507.5	788.214
1509.06	807.877
1510.62	806.968
1512.17	836.06
1513.73	840.008
1515.29	862.243
1516.84	862.477
1518.4	876.426
1519.95	882.946
1521.51	903.752
1523.06	898.558
1524.62	914.221
1526.17	930.741
1527.72	933.547
1529.28	947.495
1530.83	909.73
1532.38	917.107
1533.94	892.484
1535.49	876.719
1537.04	832.953
1538.59	841.473
1540.15	828.279
1541.7	822.228
1543.25	835.034
1544.8	820.411
1546.35	812.931
1547.9	805.165
1549.45	818.257
1551	802.777
1552.55	802.44
1554.1	789.246
1555.65	800.052
1557.19	810
1558.74	801.663
1560.29	789.041
1561.84	791.846
1563.38	782.652
1564.93	800.887
1566.48	789.407
1568.02	801.641
1569.57	794.733
1571.12	781.539
1572.66	792.63
1574.2	802.579
1575.75	791.956
1577.3	781.333
1578.84	808.425
1580.38	790.088
1581.93	787.18
1583.47	796.842
1585.01	789.934
1586.56	775.883
1588.1	784.403
1589.64	788.923
1591.18	794.872
1592.72	788.82
1594.27	802.198
1595.81	789.861
1597.35	783.524
1598.89	792.901
1600.43	775.992
1601.97	796.227
1603.51	797.033
1605.05	797.553
1606.59	803.787
1608.12	800.593
1609.66	779.97
1611.2	789.348
1612.74	790.153
1614.27	800.674
1615.81	778.336
1617.35	785.142
1618.89	777.091
1620.42	775.897
1621.96	771.274
1623.5	790.937
1625.03	789.457
1626.57	797.406
1628.1	771.069
1629.63	801.589
1631.17	798.681
1632.7	786.629
1634.24	785.149
1635.77	771.67
1637.3	804.475
1638.84	793.853
1640.37	799.801
1641.9	789.179
1643.43	781.127
1644.97	796.79
1646.5	783.882
1648.03	783.259
1649.56	806.351
1651.09	790.585
1652.62	796.534
1654.15	807.34
1655.68	807.003
1657.21	801.523
1658.74	796.328
1660.27	791.991
1661.79	806.512
1663.32	799.032
1664.85	803.838
1666.38	797.501
1667.91	815.735
1669.43	804.255
1670.96	803.632
1672.49	802.724
1674.01	798.101
1675.54	799.764
1677.06	801.141
1678.59	791.376
1680.11	811.61
1681.64	805.559
1683.16	810.365
1684.69	796.599
1686.21	808.548
1687.73	798.782
1689.26	808.445
1690.78	799.251
1692.3	790.057
1693.83	800.863
1695.35	783.954
1696.87	795.046
1698.39	811.852
1699.91	810.372
1701.43	806.606
1702.96	787.983
1704.48	796.504
1706	800.738
1707.52	803.258
1709.04	784.635
1710.55	796.584
1712.07	799.104
1713.59	802.481
1715.11	787.573
1716.63	792.379
1718.15	783.756
1719.66	803.419
1721.18	796.225
1722.7	779.316
1724.21	790.694
1725.73	794.928
1727.25	786.02
1728.76	791.397
1730.28	780.774
1731.8	775.58
1733.31	797.529
1734.82	790.335
1736.34	774.283
1737.85	795.946
1739.37	774.181
1740.88	791.844
1742.39	768.935
1743.91	788.312
1745.42	793.404
1746.93	787.353
1748.45	789.301
1749.96	785.25
1751.47	794.913
1752.98	782.29
1754.49	769.096
1756	791.331
1757.51	781.279
1757.73	817.361
1759.25	767.31
1760.77	781.259
1762.28	783.207
1763.8	807.156
1765.31	819.105
1766.83	769.054
1768.34	805.003
1769.86	800.951
1771.37	798.9
1772.89	766.849
1774.4	746.798
1775.92	764.747
1777.43	794.695
1778.94	782.644
1780.46	774.593
1781.97	774.542
1783.48	790.491
1784.99	778.439
1786.51	780.388
1788.02	776.337
1789.53	790.286
1791.04	780.235
1792.55	778.183
1794.06	790.132
1795.57	784.081
1797.08	798.03
1798.59	791.979
1800.1	787.927
1801.61	779.876
1803.12	755.825
1804.63	757.774
1806.13	785.723
1807.64	807.671
1809.15	785.62
1810.66	807.569
1812.16	821.518
1813.67	805.466
1815.18	767.415
1816.68	791.364
1818.19	793.313
1819.7	801.262
1821.2	817.211
1822.71	807.159
1824.21	803.108
1825.72	773.057
1827.22	797.006
1828.72	764.955
1830.23	776.903
1831.73	816.852
1833.23	784.801
1834.74	802.75
1836.24	778.698
1837.74	800.647
1839.24	786.596
1840.75	780.545
1842.25	804.494
1843.75	782.443
1845.25	808.391
1846.75	764.34
1848.25	752.289
1849.75	800.238
1851.25	784.186
1852.75	772.135
1854.25	776.084
1855.75	788.033
1857.25	767.982
1858.75	781.93
1860.24	787.879
1861.74	797.828
1863.24	775.777
1864.74	769.726
1866.23	767.674
1867.73	787.623
1869.23	753.572
1870.72	781.521
1872.22	811.47
1873.71	747.418
1875.21	783.367
1876.7	787.316
1878.2	783.265
1879.69	777.214
1881.19	803.162
1882.68	773.111
1884.18	787.06
1885.67	781.009
1887.16	802.958
1888.66	756.906
1890.15	764.855
1891.64	794.804
1893.13	762.753
1894.62	752.702
1896.11	766.65
1897.61	784.599
1899.1	788.548
1900.59	812.497
1902.08	774.446
1903.57	776.394
1905.06	772.343
1906.55	766.292
1908.04	772.241
1909.53	774.19
1911.02	766.138
1912.5	762.087
1913.99	814.036
1915.48	799.985
1916.97	763.934
1918.46	789.882
1919.94	811.831
1921.43	775.78
1922.92	797.729
1924.4	757.678
1925.89	769.626
1927.37	789.575
1928.86	785.524
1930.34	761.473
1931.83	817.422
1933.31	801.37
1934.8	791.319
1936.28	795.268
1937.77	755.217
1939.25	793.166
1940.73	793.114
1942.22	795.063
1943.7	803.012
1945.18	788.961
1946.66	786.91
1948.14	748.858
1949.63	810.807
1951.11	774.756
1952.59	772.705
1954.07	768.654
1955.55	762.602
1957.03	774.551
1958.51	800.5
1959.99	780.449
1961.47	796.398
1962.95	744.346
1964.43	794.295
1965.91	788.244
1967.39	788.193
1968.86	762.142
1970.34	760.09
1971.82	780.039
1973.3	769.988
1974.77	761.937
1976.25	735.886
1977.73	789.834
1979.2	769.783
1980.68	779.732
1982.15	795.681
1983.63	777.63
1985.1	773.578
1986.58	769.527
1988.05	779.476
1989.53	749.425
1991	769.374
1992.47	783.322
1993.95	819.271
1995.42	779.22
1996.89	765.169
1998.37	795.118
1999.84	775.066
2001.31	783.015
2002.78	790.964
2004.25	770.913
2005.73	762.862
2007.2	778.81
2008.67	786.759
2010.14	780.708
2011.61	778.657
2013.08	760.606
2014.55	764.554
2016.02	790.503
2017.49	752.452
2018.96	764.401
2020.42	782.35
2021.89	762.298
2023.36	788.247
2024.83	748.196
2026.3	756.145
2027.76	748.094
2029.23	758.042
2030.7	773.991
2032.16	763.94
2033.63	759.889
2035.09	755.838
2036.56	787.786
2038.03	795.735
2039.49	819.684
2040.96	795.633
2042.42	781.582
2043.88	791.53
2045.35	755.479
2046.81	769.428
2048.28	751.377
2049.74	773.326
2051.2	765.274
2052.67	791.223
2054.13	763.172
2055.59	763.121
2057.05	755.07
2058.51	763.018
2059.97	782.967
2061.43	790.916
2062.9	752.865
2064.36	742.814
2065.82	750.762
2067.28	752.711
2068.74	786.66
2070.2	796.609
2071.65	774.558
2073.11	788.506
2074.57	766.455
2076.03	782.404
2077.49	776.353
2078.95	806.302
2080.4	758.25
2081.86	752.199
2083.32	776.148
2084.78	756.097
2086.23	748.046
2087.69	775.994
2089.15	773.943
2090.6	771.892
2092.05	757.841
2093.51	757.79
2094.97	769.738
2096.42	737.687
2097.87	771.636
2099.33	765.585
2100.78	739.534
2102.24	745.482
2103.69	717.431
2105.14	737.38
2106.6	765.329
2108.05	731.278
2109.5	743.226
2110.95	775.175
2112.4	737.124
2113.86	765.073
2115.31	761.021
2116.76	792.97
2118.21	750.919
2119.66	732.868
2121.11	744.817
2122.56	750.766
2124.01	736.714
2125.46	770.663
2126.91	762.612
2128.35	720.561
2129.8	752.51
2131.25	786.458
2132.7	744.407
2134.15	714.356
2135.59	758.305
2137.04	794.253
2138.49	752.202
2139.94	768.151
2141.38	750.1
2142.83	752.049
2144.27	761.997
2145.72	747.946
2147.16	753.895
2148.61	711.844
2150.05	751.793
2151.5	753.741
2152.94	757.69
2154.39	751.639
2155.83	759.588
2157.27	759.537
2158.72	751.485
2160.16	767.434
2161.6	767.383
2163.05	747.332
2164.49	737.281
2165.93	753.229
2167.37	755.178
2168.81	755.127
2170.26	763.076
2171.7	755.025
2173.14	728.973
2174.58	746.922
2176.02	716.871
2177.46	722.82
2178.9	754.769
2180.34	732.717
2181.77	732.666
2183.21	746.615
2184.65	764.564
2186.09	746.513
2187.53	724.461
2188.97	748.41
2190.4	732.359
2191.84	726.308
2193.28	740.257
2194.71	752.205
2196.15	742.154
2197.59	744.103
2199.02	750.052
2200.46	722.001
2201.89	725.949
2203.33	753.898
2204.76	753.847
2206.2	765.796
2207.63	725.745
2209.07	719.693
2210.5	775.642
2211.93	737.591
2213.37	755.54
2214.8	721.489
2216.23	747.437
2217.67	717.386
2219.1	753.335
2220.53	693.284
2221.96	707.233
2223.39	719.181
2224.82	709.13
2226.26	737.079
2227.69	739.028
2229.12	746.977
2230.55	734.925
2231.98	700.874
2233.41	746.823
2234.84	674.772
2236.26	696.721
2237.69	704.669
2239.12	712.618
2240.55	710.567
2241.98	706.516
2243.41	712.465
2244.83	732.413
2246.26	728.362
2247.69	718.311
2249.11	706.26
2250.54	702.209
2251.97	718.157
2253.39	702.106
2254.82	702.055
2256.24	712.004
2257.67	689.953
2259.09	729.901
2260.52	685.85
2261.94	709.799
2263.37	661.748
2264.79	695.697
2266.22	679.645
2267.64	713.594
2269.06	695.543
2270.49	735.492
2271.91	723.441
2273.33	677.389
2274.75	699.338
2276.18	701.287
2277.59	711.236
2279.02	695.185
2280.44	699.133
2281.86	687.082
2283.28	715.031
2284.7	682.98
2286.12	724.929
2287.54	696.877
2288.96	718.826
2290.38	686.775
2291.8	690.724
2293.22	704.673
2294.63	694.621
2296.05	678.57
2297.47	714.519
2298.89	704.468
2300.31	680.417
2301.72	706.365
2303.14	716.314
2304.56	728.263
2305.97	688.212
2307.39	720.161
2308.81	702.109
2310.22	706.058
2311.64	708.007
2313.05	707.956
2314.47	693.905
2315.88	743.853
2317.3	701.802
2318.71	727.751
2320.12	691.7
2321.54	697.649
2322.95	685.597
2324.36	727.546
2325.78	713.495
2327.19	725.444
2328.6	715.393
2330.01	729.341
2331.43	723.29
2332.84	709.239
2334.25	697.188
2335.66	709.137
2337.07	691.085
2338.48	673.034
2339.89	690.983
2341.3	708.932
2342.71	692.881
2344.12	662.829
2345.53	706.778
2346.94	702.727
2348.35	688.676
2349.76	744.625
2351.17	700.573
2352.57	676.522
2353.98	710.471
2355.39	702.42
2356.8	664.369
2358.2	654.317
2359.61	702.266
2361.02	678.215
2362.42	686.164
2363.83	706.113
2365.23	720.061
2366.64	690.01
2368.04	695.959
2369.45	675.908
2370.85	687.857
2372.26	669.805
2373.66	695.754
2375.07	711.703
2376.47	673.652
2377.87	649.601
2379.28	701.549
2380.68	701.498
2382.08	671.447
2383.49	663.396
2384.89	711.344
2386.29	699.293
2387.69	687.242
2389.09	655.191
2390.49	655.14
2391.9	677.089
2393.3	675.037
2394.7	686.986
2396.1	670.935
2397.5	666.884
2398.9	660.833
2400.29	690.781
2401.69	660.73
2403.09	670.679
2404.49	688.628
2405.89	642.576
2407.29	688.525
2408.69	678.474
2410.08	674.423
2411.48	676.372
2412.88	688.32
2414.28	714.269
2415.67	668.218
2417.07	664.167
2418.47	694.116
2419.86	686.065
2421.26	644.013
2422.65	691.962
2424.05	645.911
2425.44	649.86
2426.84	679.808
2428.23	667.757
2429.62	677.706
2431.02	691.655
2432.41	651.604
2433.81	675.552
2435.2	669.501
2436.59	705.45
2437.98	669.399
2439.38	669.348
2440.77	659.296
2442.16	665.245
2443.55	711.194
2444.94	659.143
2446.34	673.092
2447.73	689.04
2449.12	684.989
2450.51	674.938
2451.9	678.887
2453.29	702.836
2454.68	658.784
2456.07	666.733
2457.46	702.682
2458.84	688.631
2460.23	696.58
2461.62	694.528
2463.01	686.477
2464.4	648.426
2465.78	698.375
2467.17	684.324
2468.56	678.272
2469.95	674.221
2471.33	684.17
2472.72	678.119
2474.1	678.068
2475.49	704.016
2476.88	709.965
2478.26	665.914
2479.65	675.863
2481.03	697.812
2482.42	679.76
2483.8	705.709
2485.19	681.658
2486.57	677.607
2487.95	677.556
2489.34	643.504
2490.72	689.453
2492.1	653.402
2493.49	703.351
2494.87	665.3
2496.25	729.248
2497.63	677.197
2499.01	705.146
2500.39	663.095
2501.77	671.044
2503.16	688.992
2504.54	670.941
2505.92	720.89
2507.3	660.839
2508.68	658.788
2510.06	686.736
2511.44	662.685
2512.81	672.634
2514.19	688.583
2515.57	656.532
2516.95	674.48
2518.33	658.429
2519.71	654.378
2521.08	666.327
2522.46	674.276
2523.84	676.224
2525.22	642.173
2526.59	682.122
2527.97	674.071
2529.35	688.02
2530.72	693.968
2532.1	655.917
2533.47	685.866
2534.85	657.815
2536.22	675.764
2537.6	691.712
2538.97	679.661
2540.35	669.61
2541.72	689.559
2543.09	659.508
2544.47	685.456
2545.84	629.405
2547.21	667.354
2548.59	667.303
2549.96	675.252
2551.33	687.2
2552.7	687.149
2554.08	649.098
2555.45	649.047
2556.82	664.996
2558.19	666.944
2559.56	660.893
2560.93	652.842
2562.3	662.791
2563.67	688.74
2565.04	660.688
2566.41	656.637
2567.78	674.586
2569.15	676.535
2570.52	654.484
2571.89	678.432
2573.25	660.381
2574.62	668.33
2575.99	684.279
2577.36	680.228
2578.73	688.176
2580.09	656.125
2581.46	658.074
2582.83	650.023
2584.19	663.972
2585.56	685.92
2586.93	653.869
2588.29	667.818
2589.66	659.767
2591.02	643.716
2592.39	675.664
2593.75	653.613
2595.12	683.562
2596.48	671.511
2597.84	675.46
2599.21	681.408
2600.57	681.357
2601.93	683.306
2603.3	645.255
2604.66	667.204
2606.02	675.152
2607.39	679.101
2608.75	665.05
2610.11	676.999
2611.47	674.948
2612.83	692.896
2614.19	680.845
2615.55	684.794
2616.91	650.743
2618.27	690.692
2619.63	668.64
2620.99	660.589
2622.35	670.538
2623.71	682.487
2625.07	662.436
2626.43	690.384
2627.79	684.333
2629.15	686.282
2630.51	652.231
2631.86	672.18
2633.22	640.128
2634.58	662.077
2635.94	676.026
2637.29	689.975
2638.65	673.924
2640.01	661.872
2641.36	689.821
2642.72	697.77
2644.08	679.719
2645.43	685.668
2646.79	689.616
2648.14	687.565
2649.49	678.514
2650.85	669.463
2652.2	683.411
2653.56	671.36
2654.91	651.309
2656.26	641.258
2657.62	663.207
2658.97	669.156
2660.32	673.104
2661.68	643.053
2663.03	659.002
2664.38	674.951
2665.73	658.899
2667.09	670.848
2668.44	684.797
2669.79	674.746
2671.14	662.695
2672.49	692.643
2673.84	676.592
2675.19	660.541
2676.54	690.49
2677.89	656.439
2679.24	672.388
2680.59	678.336
2681.94	634.285
2683.29	686.234
2684.63	656.183
2685.98	686.131
2687.33	666.08
2688.68	666.029
2690.03	673.978
2691.37	705.927
2692.72	639.875
2694.07	675.824
2695.41	675.773
2696.76	633.722
2698.11	681.671
2699.45	653.619
2700.8	667.568
2702.14	641.517
2703.49	671.466
2704.83	645.415
2706.18	665.363
2707.52	673.312
2708.87	661.261
2710.21	675.21
2711.55	673.159
2712.9	673.107
2714.24	663.056
2715.58	661.005
2716.93	674.954
2718.27	662.903
2719.61	694.851
2720.95	664.8
2722.3	636.749
2723.64	678.698
2724.98	650.647
2726.32	694.595
2727.66	668.544
2729	680.493
2730.34	654.442
2731.68	674.391
2733.02	648.339
2734.36	634.288
2735.7	634.237
2737.04	660.186
2738.38	658.135
2739.72	678.083
2741.06	652.032
2742.39	667.981
2743.73	653.93
2745.07	643.879
2746.41	643.827
2747.74	659.776
2749.08	661.725
2750.42	655.674
2751.75	685.623
2753.09	639.571
2754.43	687.52
2755.76	671.469
2757.1	689.418
2758.43	643.367
2759.77	683.315
2761.1	673.264
2762.44	675.213
2763.77	671.162
2765.11	679.111
2766.44	667.059
2767.78	633.008
2769.11	664.957
2770.44	666.906
2771.78	662.855
2773.11	674.803
2774.44	674.752
2775.77	676.701
2777.11	642.65
2778.44	676.599
2779.77	682.547
2781.1	664.496
2782.43	652.445
2783.76	688.394
2785.09	670.343
2786.42	642.291
2787.76	646.24
2789.08	672.189
2790.41	680.138
2791.74	676.087
2793.07	640.035
2794.4	683.984
2795.73	673.933
2797.06	665.882
2798.39	683.831
2799.72	665.779
2801.04	667.728
2802.37	661.677
2803.7	687.626
2805.03	659.575
2806.35	669.523
2807.68	667.472
2809.01	707.421
2810.33	641.37
2811.66	659.319
2812.98	685.267
2814.31	641.216
2815.63	645.165
2816.96	657.114
2818.28	659.063
2819.61	639.011
2820.94	678.96
2822.26	632.909
2823.58	688.858
2824.91	666.807
2826.23	640.755
2827.55	700.704
2828.88	676.653
2830.2	670.602
2831.52	680.551
2832.84	642.499
2834.16	660.448
2835.49	702.397
2836.81	634.346
2838.13	666.295
2839.45	690.243
2840.77	670.192
2842.09	682.141
2843.41	700.09
2844.73	654.039
2846.05	693.987
2847.37	667.936
2848.69	679.885
2850.01	677.834
2851.33	701.783
2852.65	689.731
2853.97	663.68
2855.29	675.629
2856.6	667.578
2857.92	703.527
2859.24	719.475
2860.56	685.424
2861.87	685.373
2863.19	677.322
2864.51	709.271
2865.82	679.219
2867.14	719.168
2868.46	729.117
2869.77	731.066
2871.09	661.015
2872.4	706.963
2873.72	682.912
2875.03	706.861
2876.35	696.81
2877.66	744.759
2878.98	732.707
2880.29	710.656
2881.6	740.605
2882.92	734.554
2884.23	720.503
2885.54	746.451
2886.86	746.4
2888.17	740.349
2889.48	764.298
2890.79	748.247
2892.1	746.195
2893.42	738.144
2894.73	752.093
2896.04	774.042
2897.35	765.991
2898.66	727.939
2899.97	745.888
2901.28	733.837
2902.59	765.786
2903.9	781.734
2905.21	761.683
2906.52	741.632
2907.83	753.581
2909.14	769.53
2910.45	769.479
2911.76	767.427
2913.06	733.376
2914.37	747.325
2915.68	741.274
2916.99	735.223
2918.29	745.171
2919.6	783.12
2920.91	733.069
2922.21	747.018
2923.52	790.966
2924.83	746.915
2926.13	750.864
2927.44	770.813
2928.74	780.762
2930.05	750.711
2931.35	754.659
2932.66	788.608
2933.96	764.557
2935.27	788.506
2936.57	772.454
2937.88	772.403
2939.18	782.352
2940.48	776.301
2941.79	812.25
2943.09	810.198
2944.39	768.147
2945.69	772.096
2946.99	796.045
2948.3	757.994
2949.6	773.943
2950.9	717.891
2952.2	783.84
2953.5	779.789
2954.8	745.738
2956.1	773.686
2957.4	763.635
2958.7	743.584
2960	739.533
2961.3	731.482
2962.6	755.43
2963.9	709.379
2965.2	761.328
2966.5	719.277
2967.8	747.226
2969.1	713.174
2970.4	733.123
2971.69	755.072
2972.99	731.021
2974.29	692.97
2975.59	732.918
2976.88	714.867
2978.18	750.816
2979.48	728.765
2980.77	728.714
2982.07	692.662
2983.36	722.611
2984.66	714.56
2985.95	702.509
2987.25	714.458
2988.55	692.406
2989.84	708.355
2991.13	700.304
2992.43	724.253
2993.72	700.202
2995.02	690.15
2996.31	690.099
2997.6	708.048
2998.9	669.997
3000.19	699.946
3001.48	671.894
3002.77	681.843
3004.07	695.792
3005.36	695.741
3006.65	667.69
3007.94	693.638
3009.23	675.587
3010.53	651.536
3011.82	691.485
3013.11	717.434
3014.4	673.382
3015.69	693.331
3016.98	695.28
3018.27	679.229
3019.56	681.178
3020.85	693.126
3022.13	659.075
3023.42	647.024
3024.71	656.973
3026	672.922
3027.29	654.87
3028.58	672.819
3029.86	702.768
3031.15	642.717
3032.44	694.666
3033.73	680.614
3035.01	682.563
3036.3	672.512
3037.58	686.461
3038.87	682.41
3040.16	674.358
3041.44	656.307
3042.73	664.256
3044.01	676.205
3045.3	672.154
3046.58	680.102
3047.87	682.051
