#Acq. time (s)=	15
#Accumulations=	4
#Range (cm-¹)=	50...4000
#Windows=	3
#Autofocus=	Off
#AutoExposure=	Off
#Spike filter=	Multiple accum.
#Delay time (s)=	0
#Binning=	1
#Readout mode=	Signal
#DeNoise=	Off
#ICS correction=	Off
#Dark correction=	Off
#Inst. Process=	Off
#Instrument=	LabRAM HR Evol
#Detector=	Syncerity OE
#Objective=	x100_VIS
#Grating=	600 (500nm)
#ND Filter=	5%
#Laser=	532nm_Edge
#Hole=	100.021
#Range=	Visible
#Project=	Omar
#Sample=	120523
#Site=	ap
#Title=	mz
#Remark=	5 laser intensity
#Date=	12.05.2023 16:56
#Acquired=	12.05.2023 16:56:50
51.0297	26
52.8754	30.5915
54.7185	35.8496
56.5635	38.4411
58.406	50.3659
60.2502	66.9574
62.0919	92.2156
63.9355	125.474
65.7765	144.065
67.6193	182.657
69.4595	207.248
71.3016	249.173
73.1412	293.764
74.9825	341.023
76.8214	365.614
78.662	388.872
80.5001	404.797
82.34	430.055
84.1774	463.313
86.0166	469.238
87.8532	485.83
89.6917	489.088
91.5276	470.346
93.3632	488.937
95.2006	479.529
97.0355	486.787
98.8721	476.045
100.706	477.97
102.54	487.895
104.376	488.486
106.209	505.744
108.041	526.336
109.876	502.927
111.708	506.186
113.542	495.444
115.373	508.702
117.204	491.293
119.036	498.551
120.867	502.476
122.697	496.401
124.526	478.993
126.357	494.251
128.186	482.842
130.014	488.767
131.845	493.358
133.672	486.617
135.5	495.875
137.327	502.466
139.155	499.058
140.982	504.316
142.807	494.907
144.633	496.165
146.46	512.757
148.285	496.682
150.11	493.94
151.934	511.865
153.757	508.456
155.583	495.714
157.406	524.973
159.229	502.897
161.051	519.489
162.873	488.08
164.697	500.005
166.518	497.263
168.339	515.188
170.159	482.446
171.98	503.704
173.799	508.963
175.619	474.887
177.44	516.146
179.259	495.404
181.077	485.995
182.895	493.92
184.713	486.511
186.53	494.436
188.347	503.694
190.164	493.619
191.98	515.544
193.796	488.802
195.612	506.06
197.427	499.985
199.242	520.577
201.059	495.168
202.873	511.093
204.686	487.018
206.5	500.943
208.313	503.534
210.126	506.126
211.938	485.384
213.75	501.975
215.562	477.9
217.373	493.158
219.184	493.083
220.993	493.674
222.803	494.266
224.613	488.857
226.422	472.782
228.232	486.04
230.04	488.632
231.849	455.223
233.657	480.481
235.465	469.073
237.272	478.998
239.079	480.922
240.886	460.847
242.693	482.772
244.497	480.03
246.302	493.288
248.108	490.547
249.913	491.805
251.717	488.396
253.521	480.321
255.325	489.579
257.127	492.171
258.93	469.429
260.733	486.02
262.535	465.945
264.338	489.203
266.137	473.795
267.939	472.386
269.74	478.978
271.541	485.569
273.341	491.494
275.139	473.419
276.939	473.344
278.738	468.602
280.537	478.527
282.334	474.451
284.132	483.043
285.93	470.301
287.728	469.559
289.523	478.817
291.32	473.409
293.117	478
294.911	473.925
296.707	463.183
298.502	477.775
300.295	467.033
302.09	483.624
303.885	480.216
305.677	481.474
307.47	480.065
309.264	489.99
311.055	501.248
312.848	495.84
314.64	485.765
316.43	479.023
318.222	478.948
320.011	489.539
321.802	480.131
323.593	484.722
325.381	490.647
327.171	485.905
328.958	495.83
330.748	482.421
332.535	485.68
334.323	495.604
336.109	495.529
337.897	486.787
339.685	465.379
341.47	492.637
343.257	493.895
345.041	494.487
346.827	487.745
348.611	490.336
350.397	494.928
352.18	500.852
353.962	494.777
355.747	478.035
357.529	473.96
359.312	496.552
361.094	483.143
362.877	489.068
364.658	483.66
366.44	490.251
368.22	502.176
369.999	488.101
371.781	498.692
373.56	504.617
375.34	486.542
377.119	490.467
378.896	490.391
380.676	497.65
382.453	492.241
384.23	496.166
386.009	510.091
387.785	483.349
389.561	511.274
391.338	511.198
393.113	504.457
394.888	515.715
396.665	496.973
398.439	504.898
400.213	517.489
401.988	508.747
403.761	516.005
405.534	503.93
407.306	495.855
409.081	507.78
410.852	499.705
412.624	510.963
414.395	512.888
416.167	510.812
417.938	506.737
419.708	502.662
421.477	512.587
423.249	517.178
425.018	518.437
426.786	505.695
428.555	498.286
430.323	514.878
432.092	510.802
433.86	502.061
435.627	494.652
437.393	505.91
439.16	479.168
440.926	503.093
442.691	515.685
444.458	516.276
446.223	506.868
447.988	512.792
449.752	520.717
451.516	495.975
453.28	516.567
455.043	529.158
456.806	511.083
458.568	515.008
460.33	510.266
462.092	519.524
463.854	518.782
465.615	516.041
467.378	521.299
469.138	519.224
470.899	520.482
472.658	508.407
474.418	516.331
476.177	510.256
477.936	507.514
479.694	525.439
481.452	519.364
483.21	517.955
484.966	522.547
486.723	519.138
488.48	503.73
490.236	544.988
491.992	512.913
493.748	529.504
495.503	526.096
497.258	508.687
499.013	520.612
500.768	515.87
502.522	516.462
504.276	521.72
506.029	524.978
507.78	533.569
509.533	508.828
511.285	526.086
513.037	536.677
514.789	517.269
516.54	527.193
518.289	545.118
520.04	537.71
521.791	540.968
523.541	544.226
525.29	537.484
527.04	537.409
528.787	538.001
530.536	528.592
532.284	533.184
534.032	534.442
535.778	534.367
537.525	541.625
539.272	529.549
541.019	541.474
542.763	544.732
544.509	530.657
546.255	531.249
548	540.507
549.743	548.432
551.488	532.356
553.232	531.615
554.974	551.539
556.718	534.131
558.462	537.389
560.203	517.98
561.945	553.905
563.688	546.497
565.428	543.088
567.169	554.346
568.911	539.605
570.65	524.196
572.391	534.121
574.129	544.712
575.869	530.637
577.609	546.562
579.346	548.487
581.085	533.078
582.822	543.003
584.56	538.261
586.296	543.519
588.034	544.111
589.771	564.036
591.506	539.961
593.243	525.219
594.978	520.477
596.714	544.402
598.447	552.993
600.183	540.251
601.916	541.509
603.651	540.768
605.383	550.026
607.117	549.284
608.849	559.209
610.582	549.8
612.313	535.725
614.044	544.983
615.776	565.575
617.507	569.499
619.238	550.758
620.968	573.349
622.699	575.94
624.428	572.532
626.156	564.457
627.886	559.048
629.614	572.973
631.342	575.565
633.071	560.156
634.797	564.081
636.526	565.339
638.252	578.597
639.978	572.522
641.705	556.447
643.431	559.705
645.155	563.63
646.88	548.221
648.606	570.813
650.33	560.738
652.053	543.996
653.779	555.92
655.502	556.512
657.224	547.77
658.946	563.695
660.67	564.953
662.392	552.878
664.113	546.136
665.834	558.061
667.556	547.986
669.277	565.244
670.997	577.835
672.716	539.093
674.435	559.018
676.156	541.61
677.875	556.201
679.593	557.459
681.311	560.051
683.029	547.976
684.746	576.567
686.465	556.492
688.182	567.083
689.898	563.008
691.614	555.6
693.33	565.525
695.045	551.449
696.76	546.708
698.475	564.632
700.189	579.891
701.904	567.149
703.619	560.407
705.333	583.665
707.046	575.59
708.759	574.181
710.471	573.439
712.183	559.364
713.895	562.622
715.606	575.214
717.317	569.805
719.028	571.73
720.739	549.655
722.449	574.913
724.159	576.838
725.868	555.429
727.578	568.687
729.286	566.612
730.995	555.204
732.703	571.129
734.409	581.72
736.117	578.978
737.824	563.57
739.531	564.828
741.237	578.753
742.944	577.344
744.65	563.269
746.355	564.527
748.061	575.785
749.766	559.71
751.468	561.635
753.173	574.893
754.877	561.484
756.581	563.409
758.284	584.001
759.987	583.259
761.688	585.184
763.39	570.442
765.092	560.367
766.794	579.625
768.496	546.216
770.195	564.141
771.896	576.066
773.596	583.991
775.296	579.249
776.994	572.507
778.694	582.432
780.393	579.023
782.092	558.281
783.788	576.206
785.487	569.465
787.185	568.723
788.882	565.981
790.578	567.906
792.274	571.164
793.971	569.089
795.666	561.68
797.362	556.272
799.057	558.863
800.751	582.121
802.446	584.713
804.138	574.637
805.833	569.229
807.527	568.487
809.219	590.412
810.912	589.003
812.605	563.595
814.296	596.853
815.989	588.111
817.679	586.036
819.371	599.961
821.06	591.219
822.752	605.144
824.441	597.735
826.131	602.993
827.822	583.585
829.51	602.176
831.199	606.101
832.887	595.359
834.576	599.284
836.262	617.209
837.951	600.467
839.637	624.392
841.323	590.317
843.01	592.908
844.695	594.166
846.382	612.091
848.066	604.683
849.753	579.941
851.436	607.866
853.122	632.457
854.805	599.715
856.488	589.64
858.173	597.565
859.855	602.156
861.539	607.414
863.221	624.673
864.902	627.931
866.585	617.189
868.266	615.114
869.946	623.705
871.628	603.63
873.308	615.555
874.987	613.48
876.668	616.738
878.347	599.329
880.026	605.921
881.704	610.512
883.384	601.104
885.061	583.695
886.739	586.953
888.418	588.878
890.094	595.47
891.771	594.728
893.447	589.986
895.122	578.577
896.799	589.836
898.475	573.76
900.149	603.685
901.824	600.943
903.498	608.201
905.174	604.793
906.847	595.384
908.52	601.309
910.193	586.567
911.866	603.159
913.538	597.084
915.212	576.342
916.883	605.6
918.555	582.858
920.226	610.783
921.896	594.708
923.567	608.633
925.237	583.224
926.907	587.149
928.576	582.407
930.245	592.332
931.914	598.257
933.584	603.515
935.253	600.773
936.92	589.364
938.588	601.289
940.255	580.547
941.922	603.806
943.589	603.73
945.255	592.322
946.921	584.913
948.587	618.172
950.252	599.43
951.917	624.688
953.582	623.946
955.244	602.537
956.909	624.462
958.572	610.387
960.236	604.312
961.899	635.57
963.562	605.495
965.225	595.42
966.887	592.678
968.549	621.936
970.211	610.527
971.872	613.786
973.531	609.71
975.192	616.302
976.852	610.893
978.512	596.818
980.172	612.743
981.831	610.668
983.489	615.259
985.148	606.517
986.806	619.776
988.464	583.7
990.122	606.958
991.778	610.217
993.435	608.141
995.092	602.066
996.749	610.658
998.404	619.916
1000.06	630.507
1001.72	629.766
1003.37	651.024
1005.02	629.615
1006.68	646.207
1008.33	649.465
1009.99	646.056
1011.64	640.648
1013.29	645.906
1014.95	629.831
1016.6	623.089
1018.25	629.014
1019.9	617.605
1021.55	627.53
1023.2	630.788
1024.85	625.38
1026.51	629.304
1028.16	627.229
1029.81	621.821
1031.46	627.079
1033.1	612.337
1034.75	628.928
1036.4	617.52
1038.05	616.111
1039.7	627.37
1041.34	607.961
1042.99	634.553
1044.64	628.477
1046.29	616.402
1047.93	623.66
1049.58	629.585
1051.22	628.843
1052.87	634.101
1054.51	648.693
1056.16	647.284
1057.8	641.209
1059.45	651.801
1061.09	625.059
1062.73	632.317
1064.38	636.908
1066.02	664.167
1067.66	663.425
1069.3	651.35
1070.95	641.941
1072.59	662.533
1074.23	646.457
1075.87	631.049
1077.51	640.307
1079.15	652.898
1080.79	637.49
1082.43	647.415
1084.07	610.006
1085.71	631.264
1087.35	626.523
1088.99	643.781
1090.62	664.372
1092.26	633.63
1093.9	629.555
1095.53	648.813
1097.17	631.405
1098.81	641.33
1100.44	626.588
1102.08	643.846
1103.71	643.104
1105.35	649.695
1106.99	636.954
1108.62	648.878
1110.25	620.137
1111.89	632.061
1113.52	642.653
1115.15	628.578
1116.79	632.503
1118.42	630.427
1120.05	631.019
1121.68	635.61
1123.31	658.202
1124.95	642.793
1126.58	652.718
1128.21	625.31
1129.84	656.568
1131.47	661.159
1133.1	645.751
1134.73	648.342
1136.36	657.6
1137.98	646.858
1139.61	645.45
1141.24	648.041
1142.87	667.3
1144.5	658.558
1146.12	670.482
1147.75	694.407
1149.38	688.332
1151	735.59
1152.63	754.848
1154.26	760.773
1155.88	760.031
1157.51	771.289
1159.13	774.548
1160.76	739.806
1162.38	754.397
1164	698.989
1165.63	696.247
1167.25	694.172
1168.87	687.43
1170.49	679.355
1172.12	648.613
1173.74	673.871
1175.36	673.129
1176.98	667.054
1178.6	652.979
1180.22	657.57
1181.84	682.162
1183.46	680.753
1185.08	683.345
1186.7	679.27
1188.32	685.861
1189.94	680.453
1191.56	692.377
1193.18	693.635
1194.79	663.56
1196.41	680.152
1198.03	662.743
1199.64	672.001
1201.26	655.926
1202.88	665.184
1204.49	680.443
1206.11	657.701
1207.72	648.959
1209.34	657.55
1210.95	656.142
1212.57	674.067
1214.18	665.991
1215.8	659.916
1217.41	645.841
1219.02	650.432
1220.64	633.024
1222.25	648.282
1223.86	649.54
1225.47	630.132
1227.08	647.39
1228.69	655.981
1230.3	632.573
1231.92	644.498
1233.53	645.089
1235.14	639.681
1236.75	629.605
1238.35	655.53
1239.96	635.455
1241.57	646.047
1243.18	657.305
1244.79	639.229
1246.4	643.821
1248.01	634.412
1249.61	605.004
1251.22	635.595
1252.82	646.187
1254.43	640.112
1256.04	640.037
1257.64	647.295
1259.25	642.553
1260.85	647.811
1262.46	681.736
1264.06	666.327
1265.67	661.585
1267.27	670.177
1268.87	649.435
1270.48	642.026
1272.08	645.285
1273.68	644.543
1275.28	651.134
1276.89	648.392
1278.49	648.317
1280.09	633.575
1281.69	644.834
1283.29	663.425
1284.89	671.35
1286.49	661.275
1288.09	659.199
1289.69	655.791
1291.29	664.382
1292.89	664.307
1294.49	646.232
1296.09	652.824
1297.68	662.082
1299.28	629.34
1300.88	680.598
1302.48	671.856
1304.07	656.448
1305.67	668.372
1307.26	636.964
1308.86	644.889
1310.46	646.147
1312.05	656.072
1313.65	669.33
1315.24	651.255
1316.84	661.846
1318.43	674.438
1320.02	670.362
1321.62	640.954
1323.21	654.212
1324.8	668.137
1326.39	662.062
1327.99	657.986
1329.58	666.578
1331.17	655.169
1332.76	656.428
1334.35	661.019
1335.94	670.277
1337.53	666.202
1339.12	652.127
1340.71	634.718
1342.3	656.643
1343.89	626.568
1345.48	678.493
1347.07	657.084
1348.65	655.009
1350.24	654.934
1351.83	662.192
1353.42	654.117
1355	651.375
1356.59	685.966
1358.18	668.558
1359.76	657.149
1361.35	651.074
1362.93	643.666
1364.52	660.924
1366.1	662.849
1367.69	656.107
1369.27	642.698
1370.86	653.956
1372.44	653.881
1374.02	645.139
1375.61	658.398
1377.19	662.322
1378.77	667.581
1380.35	658.839
1381.93	666.763
1383.52	640.022
1385.1	662.613
1386.68	645.871
1388.26	666.463
1389.84	659.721
1391.42	656.312
1393	656.904
1394.58	658.162
1396.16	675.42
1397.74	653.345
1399.31	651.936
1400.89	654.528
1402.47	663.119
1404.05	666.378
1405.63	674.969
1407.2	660.227
1408.78	664.819
1410.36	666.077
1411.93	680.002
1413.51	671.26
1415.08	663.851
1416.66	669.776
1418.23	654.368
1419.81	658.292
1421.38	657.551
1422.95	686.142
1424.53	675.4
1426.1	661.992
1427.68	651.916
1429.25	658.508
1430.82	679.766
1432.39	669.691
1433.96	680.949
1435.54	679.541
1437.11	654.799
1438.68	671.39
1440.25	661.315
1441.82	676.573
1443.39	666.498
1444.96	686.423
1446.53	668.348
1448.1	676.272
1449.67	700.197
1451.23	659.455
1452.8	667.38
1454.37	686.638
1455.94	697.23
1457.5	688.488
1459.07	658.413
1460.64	689.004
1462.21	672.262
1463.77	687.521
1465.34	688.112
1466.9	685.37
1468.47	671.295
1470.03	671.22
1471.6	670.478
1473.16	678.403
1474.72	654.994
1476.29	667.586
1477.85	674.177
1479.42	668.102
1480.98	670.693
1482.54	644.618
1484.1	651.876
1485.66	673.801
1487.23	677.726
1488.79	664.984
1490.35	665.576
1491.91	665.5
1493.47	662.092
1495.03	658.017
1496.59	669.942
1498.15	672.533
1499.71	667.791
1501.27	673.716
1502.83	697.641
1504.39	700.232
1505.94	700.824
1507.5	704.749
1509.06	700.007
1510.62	707.932
1512.17	710.523
1513.73	729.115
1515.29	769.706
1516.84	758.297
1518.4	798.889
1519.95	797.481
1521.51	846.072
1523.06	852.663
1524.62	869.255
1526.17	866.513
1527.72	871.771
1529.28	880.363
1530.83	854.287
1532.38	856.212
1533.94	820.804
1535.49	779.395
1537.04	757.987
1538.59	732.578
1540.15	731.17
1541.7	731.761
1543.25	715.019
1544.8	700.278
1546.35	700.202
1547.9	691.461
1549.45	700.052
1551	695.31
1552.55	669.902
1554.1	668.493
1555.65	685.751
1557.19	702.343
1558.74	680.268
1560.29	688.859
1561.84	683.451
1563.38	672.042
1564.93	662.633
1566.48	677.892
1568.02	681.15
1569.57	681.741
1571.12	688.333
1572.66	670.924
1574.2	676.849
1575.75	666.107
1577.3	676.032
1578.84	677.29
1580.38	672.548
1581.93	685.14
1583.47	664.398
1585.01	682.323
1586.56	668.914
1588.1	680.172
1589.64	668.764
1591.18	660.022
1592.72	666.613
1594.27	675.205
1595.81	675.13
1597.35	673.721
1598.89	684.313
1600.43	682.904
1601.97	684.162
1603.51	680.754
1605.05	670.012
1606.59	694.453
1608.12	672.718
1609.66	679.7
1611.2	675.287
1612.74	679.377
1614.27	666.519
1615.81	675.382
1617.35	685.926
1618.89	655.206
1620.42	676.891
1621.96	649.419
1623.5	674.242
1625.03	672.631
1626.57	673.304
1628.1	670.969
1629.63	673.359
1631.17	658.75
1632.7	668.838
1634.24	668.067
1635.77	670.169
1637.3	672.774
1638.84	659.931
1640.37	676.222
1641.9	686.057
1643.43	673.185
1644.97	669.896
1646.5	665.61
1648.03	670.412
1649.56	666.191
1651.09	669.054
1652.62	680.561
1654.15	669.598
1655.68	680.523
1657.21	675.186
1658.74	671.293
1660.27	659.721
1661.79	673.13
1663.32	665.425
1664.85	679.662
1666.38	670.977
1667.91	679.355
1669.43	683.796
1670.96	678.069
1672.49	679.156
1674.01	671.113
1675.54	675.388
1677.06	672.741
1678.59	671.053
1680.11	664.007
1681.64	668.058
1683.16	672.207
1684.69	673.085
1686.21	683.444
1687.73	675.747
1689.26	672.724
1690.78	658.495
1692.3	668.392
1693.83	671.884
1695.35	670.96
1696.87	670.027
1698.39	675.322
1699.91	675.697
1701.43	667.092
1702.96	669.404
1704.48	683.047
1706	671.343
1707.52	661.369
1709.04	663.948
1710.55	655.695
1712.07	683.153
1713.59	657.197
1715.11	667.463
1716.63	649.069
1718.15	655.498
1719.66	674.678
1721.18	666.708
1722.7	656.193
1724.21	650.993
1725.73	672.761
1727.25	656.964
1728.76	647.027
1730.28	640.411
1731.8	650.577
1733.31	650.84
1734.82	660.054
1736.34	647.242
1737.85	664.146
1739.37	646.47
1740.88	652.182
1742.39	645.87
1743.91	650.371
1745.42	659.01
1746.93	653.22
1748.45	648.304
1749.96	658.147
1751.47	649.087
1752.98	653.692
1754.49	636.344
1756	643.49
1757.51	661.047
1757.73	663.733
1759.25	658.354
1760.77	653.643
1762.28	636.932
1763.8	658.887
1765.31	648.842
1766.83	656.131
1768.34	660.086
1769.86	650.042
1771.37	663.33
1772.89	633.285
1774.4	648.574
1775.92	651.863
1777.43	643.151
1778.94	647.773
1780.46	654.395
1781.97	649.017
1783.48	658.973
1784.99	646.928
1786.51	651.55
1788.02	664.172
1789.53	636.794
1791.04	652.082
1792.55	649.371
1794.06	651.326
1795.57	647.282
1797.08	661.904
1798.59	640.526
1800.1	651.148
1801.61	659.769
1803.12	655.725
1804.63	673.013
1806.13	668.969
1807.64	669.591
1809.15	659.546
1810.66	655.501
1812.16	666.148
1813.67	656.129
1815.18	665.442
1816.68	658.089
1818.19	656.069
1819.7	642.05
1821.2	648.697
1822.71	651.344
1824.21	664.657
1825.72	657.971
1827.22	651.285
1828.72	671.265
1830.23	659.912
1831.73	653.892
1833.23	639.206
1834.74	659.186
1836.24	669.167
1837.74	659.147
1839.24	673.794
1840.75	649.774
1842.25	653.754
1843.75	651.735
1845.25	665.715
1846.75	655.695
1848.25	653.676
1849.75	672.989
1851.25	656.303
1852.75	651.617
1854.25	655.597
1855.75	646.911
1857.25	647.558
1858.75	664.205
1860.24	656.185
1861.74	650.832
1863.24	678.812
1864.74	664.792
1866.23	622.106
1867.73	640.753
1869.23	661.4
1870.72	670.714
1872.22	660.694
1873.71	651.341
1875.21	657.321
1876.7	663.302
1878.2	659.282
1879.69	661.262
1881.19	647.909
1882.68	662.556
1884.18	662.537
1885.67	657.184
1887.16	645.164
1888.66	645.144
1890.15	646.458
1891.64	645.105
1893.13	652.419
1894.62	663.066
1896.11	659.046
1897.61	651.693
1899.1	665.673
1900.59	658.987
1902.08	664.967
1903.57	650.947
1905.06	650.928
1906.55	663.575
1908.04	664.222
1909.53	648.869
1911.02	642.849
1912.5	672.163
1913.99	670.143
1915.48	640.123
1916.97	659.437
1918.46	657.417
1919.94	660.731
1921.43	639.378
1922.92	646.692
1924.4	663.339
1925.89	659.986
1927.37	675.299
1928.86	670.613
1930.34	677.26
1931.83	649.24
1933.31	658.554
1934.8	675.867
1936.28	667.181
1937.77	662.495
1939.25	647.142
1940.73	657.789
1942.22	660.436
1943.7	659.749
1945.18	658.396
1946.66	659.043
1948.14	654.357
1949.63	675.671
1951.11	656.984
1952.59	660.964
1954.07	663.611
1955.55	654.925
1957.03	652.239
1958.51	654.886
1959.99	654.866
1961.47	643.513
1962.95	652.827
1964.43	650.807
1965.91	668.121
1967.39	649.434
1968.86	662.081
1970.34	666.728
1971.82	666.709
1973.3	616.689
1974.77	660.669
1976.25	657.316
1977.73	652.63
1979.2	654.61
1980.68	664.59
1982.15	665.904
1983.63	639.218
1985.1	655.865
1986.58	649.845
1988.05	645.159
1989.53	652.472
1991	653.786
1992.47	655.766
1993.95	653.747
1995.42	639.06
1996.89	626.374
1998.37	665.021
1999.84	646.335
2001.31	629.648
2002.78	659.629
2004.25	650.942
2005.73	665.589
2007.2	658.236
2008.67	642.216
2010.14	665.53
2011.61	659.51
2013.08	660.157
2014.55	650.804
2016.02	656.785
2017.49	638.765
2018.96	654.745
2020.42	655.392
2021.89	663.373
2023.36	653.353
2024.83	663.333
2026.3	643.98
2027.76	652.627
2029.23	665.941
2030.7	646.588
2032.16	662.568
2033.63	659.882
2035.09	656.529
2036.56	661.842
2038.03	657.156
2039.49	661.803
2040.96	654.45
2042.42	652.43
2043.88	634.411
2045.35	637.058
2046.81	625.038
2048.28	632.352
2049.74	668.999
2051.2	661.646
2052.67	652.292
2054.13	659.606
2055.59	648.253
2057.05	636.9
2058.51	652.881
2059.97	642.861
2061.43	630.174
2062.9	650.155
2064.36	642.135
2065.82	636.782
2067.28	654.762
2068.74	650.076
2070.2	654.056
2071.65	651.37
2073.11	662.017
2074.57	643.331
2076.03	641.311
2077.49	639.291
2078.95	654.605
2080.4	646.585
2081.86	654.566
2083.32	628.546
2084.78	636.526
2086.23	650.507
2087.69	649.82
2089.15	616.467
2090.6	641.781
2092.05	656.428
2093.51	622.408
2094.97	639.055
2096.42	650.369
2097.87	647.682
2099.33	634.996
2100.78	652.976
2102.24	652.29
2103.69	637.604
2105.14	633.584
2106.6	622.231
2108.05	636.878
2109.5	630.192
2110.95	618.839
2112.4	635.486
2113.86	646.799
2115.31	662.113
2116.76	629.426
2118.21	624.073
2119.66	647.387
2121.11	632.034
2122.56	648.014
2124.01	626.661
2125.46	631.975
2126.91	639.955
2128.35	642.602
2129.8	657.916
2131.25	642.563
2132.7	639.877
2134.15	610.524
2135.59	614.504
2137.04	637.818
2138.49	637.131
2139.94	647.778
2141.38	650.425
2142.83	627.072
2144.27	645.719
2145.72	635.033
2147.16	619.68
2148.61	643.66
2150.05	630.974
2151.5	641.621
2152.94	628.934
2154.39	640.248
2155.83	633.562
2157.27	625.542
2158.72	627.522
2160.16	641.503
2161.6	646.816
2163.05	642.13
2164.49	639.443
2165.93	644.091
2167.37	624.737
2168.81	626.051
2170.26	645.365
2171.7	640.012
2173.14	633.325
2174.58	655.972
2176.02	622.619
2177.46	622.6
2178.9	634.58
2180.34	625.894
2181.77	633.874
2183.21	639.854
2184.65	642.501
2186.09	651.815
2187.53	655.795
2188.97	629.109
2190.4	634.422
2191.84	632.403
2193.28	627.05
2194.71	624.364
2196.15	617.677
2197.59	646.991
2199.02	632.971
2200.46	638.951
2201.89	626.932
2203.33	634.912
2204.76	624.892
2206.2	644.206
2207.63	628.186
2209.07	611.5
2210.5	608.147
2211.93	628.127
2213.37	608.108
2214.8	626.755
2216.23	626.068
2217.67	654.715
2219.1	607.362
2220.53	615.343
2221.96	619.323
2223.39	603.97
2224.82	611.283
2226.26	610.597
2227.69	609.911
2229.12	612.558
2230.55	599.871
2231.98	606.518
2233.41	623.165
2234.84	630.479
2236.26	614.459
2237.69	599.106
2239.12	621.087
2240.55	601.067
2241.98	620.381
2243.41	609.028
2244.83	615.674
2246.26	617.655
2247.69	584.302
2249.11	613.615
2250.54	590.262
2251.97	605.576
2253.39	606.89
2254.82	586.203
2256.24	613.517
2257.67	590.164
2259.09	606.144
2260.52	598.791
2261.94	610.105
2263.37	612.085
2264.79	598.732
2266.22	612.046
2267.64	594.026
2269.06	587.34
2270.49	594.654
2271.91	622.634
2273.33	599.281
2274.75	607.928
2276.18	606.575
2277.59	614.555
2279.02	591.869
2280.44	579.182
2281.86	601.829
2283.28	595.143
2284.7	629.123
2286.12	615.104
2287.54	609.751
2288.96	596.398
2290.38	608.378
2291.8	597.692
2293.22	606.339
2294.63	606.986
2296.05	608.299
2297.47	598.946
2298.89	597.593
2300.31	614.907
2301.72	600.22
2303.14	611.534
2304.56	606.181
2305.97	614.828
2307.39	602.142
2308.81	624.122
2310.22	602.102
2311.64	602.749
2313.05	596.73
2314.47	605.377
2315.88	592.69
2317.3	581.337
2318.71	592.651
2320.12	603.298
2321.54	594.612
2322.95	599.259
2324.36	605.239
2325.78	614.552
2327.19	615.866
2328.6	615.18
2330.01	601.827
2331.43	605.14
2332.84	608.454
2334.25	614.434
2335.66	595.748
2337.07	597.062
2338.48	597.709
2339.89	589.022
2341.3	577.669
2342.71	616.316
2344.12	580.963
2345.53	607.61
2346.94	622.257
2348.35	602.238
2349.76	605.551
2351.17	594.865
2352.57	608.178
2353.98	601.492
2355.39	594.139
2356.8	588.786
2358.2	599.433
2359.61	604.08
2361.02	600.727
2362.42	578.707
2363.83	586.021
2365.23	591.335
2366.64	582.648
2368.04	579.295
2369.45	581.276
2370.85	595.256
2372.26	595.903
2373.66	605.883
2375.07	581.864
2376.47	588.51
2377.87	584.491
2379.28	579.138
2380.68	575.785
2382.08	597.765
2383.49	575.745
2384.89	601.059
2386.29	577.706
2387.69	580.353
2389.09	569
2390.49	565.647
2391.9	584.294
2393.3	582.274
2394.7	580.921
2396.1	574.902
2397.5	576.882
2398.9	574.196
2400.29	586.843
2401.69	586.156
2403.09	591.47
2404.49	568.117
2405.89	590.764
2407.29	587.411
2408.69	577.391
2410.08	584.705
2411.48	562.685
2412.88	565.999
2414.28	584.646
2415.67	576.626
2417.07	576.606
2418.47	573.253
2419.86	568.567
2421.26	574.547
2422.65	590.528
2424.05	567.175
2425.44	591.821
2426.84	578.469
2428.23	571.115
2429.62	568.429
2431.02	587.743
2432.41	583.723
2433.81	604.37
2435.2	565.684
2436.59	574.997
2437.98	559.644
2439.38	561.625
2440.77	578.272
2442.16	597.585
2443.55	581.566
2444.94	596.879
2446.34	591.526
2447.73	581.507
2449.12	584.154
2450.51	570.8
2451.9	598.114
2453.29	578.094
2454.68	590.741
2456.07	562.055
2457.46	583.369
2458.84	600.016
2460.23	574.663
2461.62	599.976
2463.01	595.29
2464.4	605.937
2465.78	583.251
2467.17	577.231
2468.56	589.211
2469.95	597.858
2471.33	594.505
2472.72	587.152
2474.1	591.133
2475.49	589.78
2476.88	585.093
2478.26	586.407
2479.65	596.387
2481.03	587.034
2482.42	590.348
2483.8	580.328
2485.19	615.642
2486.57	587.622
2487.95	599.602
2489.34	594.249
2490.72	581.563
2492.1	587.543
2493.49	598.19
2494.87	592.837
2496.25	579.484
2497.63	610.131
2499.01	580.778
2500.39	606.759
2501.77	588.739
2503.16	584.719
2504.54	573.366
2505.92	598.68
2507.3	585.993
2508.68	580.64
2510.06	592.621
2511.44	580.601
2512.81	594.581
2514.19	578.562
2515.57	599.209
2516.95	586.522
2518.33	581.169
2519.71	594.483
2521.08	599.13
2522.46	579.777
2523.84	571.091
2525.22	583.071
2526.59	581.051
2527.97	581.031
2529.35	575.678
2530.72	590.992
2532.1	574.972
2533.47	579.619
2534.85	592.933
2536.22	570.247
2537.6	572.227
2538.97	577.541
2540.35	572.188
2541.72	572.168
2543.09	578.815
2544.47	573.462
2545.84	580.109
2547.21	566.089
2548.59	566.07
2549.96	578.716
2551.33	585.364
2552.7	564.01
2554.08	580.658
2555.45	595.305
2556.82	565.951
2558.19	576.598
2559.56	579.245
2560.93	584.559
2562.3	579.873
2563.67	564.52
2565.04	582.5
2566.41	568.48
2567.78	574.461
2569.15	573.108
2570.52	571.755
2571.89	572.402
2573.25	579.715
2574.62	581.696
2575.99	570.343
2577.36	564.99
2578.73	586.97
2580.09	584.95
2581.46	575.597
2582.83	584.911
2584.19	571.558
2585.56	594.871
2586.93	584.852
2588.29	572.165
2589.66	587.479
2591.02	566.793
2592.39	586.773
2593.75	587.42
2595.12	596.734
2596.48	588.714
2597.84	591.361
2599.21	576.674
2600.57	586.655
2601.93	583.302
2603.3	581.949
2604.66	593.929
2606.02	587.909
2607.39	601.89
2608.75	599.203
2610.11	582.517
2611.47	593.164
2612.83	589.811
2614.19	585.791
2615.55	591.772
2616.91	608.419
2618.27	586.399
2619.63	586.379
2620.99	596.36
2622.35	583.673
2623.71	585.654
2625.07	576.967
2626.43	592.948
2627.79	595.595
2629.15	590.242
2630.51	578.222
2631.86	583.535
2633.22	590.849
2634.58	595.496
2635.94	594.81
2637.29	584.79
2638.65	593.437
2640.01	576.751
2641.36	588.064
2642.72	584.045
2644.08	569.358
2645.43	555.339
2646.79	566.652
2648.14	594.633
2649.49	587.613
2650.85	579.927
2652.2	583.24
2653.56	587.22
2654.91	573.867
2656.26	577.181
2657.62	593.828
2658.97	575.808
2660.32	590.455
2661.68	610.436
2663.03	581.083
2664.38	557.063
2665.73	586.377
2667.09	582.357
2668.44	597.671
2669.79	585.651
2671.14	590.965
2672.49	590.278
2673.84	588.259
2675.19	592.906
2676.54	592.219
2677.89	577.533
2679.24	594.18
2680.59	587.493
2681.94	584.807
2683.29	588.787
2684.63	587.434
2685.98	583.415
2687.33	568.728
2688.68	593.375
2690.03	569.356
2691.37	583.336
2692.72	565.983
2694.07	588.63
2695.41	592.61
2696.76	583.257
2698.11	573.238
2699.45	576.551
2700.8	572.531
2702.14	585.179
2703.49	597.825
2704.83	591.806
2706.18	595.786
2707.52	581.1
2708.87	577.08
2710.21	571.06
2711.55	569.707
2712.9	574.354
2714.24	584.335
2715.58	587.648
2716.93	572.295
2718.27	566.276
2719.61	578.256
2720.95	578.903
2722.3	593.55
2723.64	586.864
2724.98	577.511
2726.32	589.491
2727.66	570.138
2729	581.452
2730.34	574.765
2731.68	586.079
2733.02	586.059
2734.36	553.373
2735.7	591.353
2737.04	570
2738.38	587.314
2739.72	588.627
2741.06	580.608
2742.39	562.588
2743.73	583.902
2745.07	593.215
2746.41	567.862
2747.74	591.176
2749.08	591.823
2750.42	585.803
2751.75	585.117
2753.09	581.097
2754.43	585.744
2755.76	571.724
2757.1	579.705
2758.43	593.685
2759.77	592.999
2761.1	599.646
2762.44	596.293
2763.77	589.606
2765.11	587.587
2766.44	586.9
2767.78	593.547
2769.11	552.194
2770.44	571.508
2771.78	564.822
2773.11	590.802
2774.44	581.449
2775.77	584.096
2777.11	566.743
2778.44	590.057
2779.77	582.703
2781.1	568.684
2782.43	581.997
2783.76	579.311
2785.09	586.625
2786.42	593.938
2787.76	583.919
2789.08	591.899
2790.41	599.879
2791.74	586.526
2793.07	591.84
2794.4	595.154
2795.73	593.801
2797.06	571.781
2798.39	573.095
2799.72	585.742
2801.04	593.055
2802.37	583.702
2803.7	589.682
2805.03	598.996
2806.35	585.643
2807.68	578.957
2809.01	584.937
2810.33	587.584
2811.66	591.564
2812.98	578.878
2814.31	578.192
2815.63	566.839
2816.96	590.819
2818.28	580.133
2819.61	597.446
2820.94	601.427
2822.26	585.407
2823.58	588.054
2824.91	579.367
2826.23	591.348
2827.55	588.661
2828.88	599.975
2830.2	593.289
2831.52	587.936
2832.84	595.916
2834.16	584.563
2835.49	588.543
2836.81	597.19
2838.13	585.837
2839.45	594.484
2840.77	593.131
2842.09	589.112
2843.41	604.425
2844.73	592.406
2846.05	596.386
2847.37	587.7
2848.69	596.346
2850.01	582.993
2851.33	601.641
2852.65	594.287
2853.97	592.268
2855.29	610.248
2856.6	598.895
2857.92	600.875
2859.24	612.189
2860.56	613.503
2861.87	606.816
2863.19	604.797
2864.51	618.11
2865.82	617.424
2867.14	619.404
2868.46	598.051
2869.77	601.365
2871.09	614.012
2872.4	619.326
2873.72	609.306
2875.03	632.62
2876.35	607.933
2877.66	639.914
2878.98	625.894
2880.29	629.207
2881.6	610.521
2882.92	623.168
2884.23	607.148
2885.54	645.795
2886.86	646.442
2888.17	638.423
2889.48	637.736
2890.79	649.717
2892.1	639.03
2893.42	651.677
2894.73	638.991
2896.04	642.305
2897.35	656.952
2898.66	658.932
2899.97	664.245
2901.28	660.892
2902.59	656.873
2903.9	646.853
2905.21	660.167
2906.52	645.48
2907.83	678.127
2909.14	643.441
2910.45	648.088
2911.76	644.735
2913.06	658.049
2914.37	654.696
2915.68	651.343
2916.99	666.656
2918.29	667.277
2919.6	661.737
2920.91	660.339
2922.21	660.555
2923.52	655.628
2924.83	664.531
2926.13	662.118
2927.44	668.949
2928.74	665.695
2930.05	654.949
2931.35	654.985
2932.66	669.584
2933.96	675.132
2935.27	673.741
2936.57	666.048
2937.88	672.2
2939.18	672.32
2940.48	678.181
2941.79	678.822
2943.09	681.452
2944.39	674.577
2945.69	667.438
2946.99	670.652
2948.3	672.017
2949.6	686.087
2950.9	676.704
2952.2	671.059
2953.5	673.19
2954.8	659.429
2956.1	666.364
2957.4	652.769
2958.7	664.278
2960	665.332
2961.3	652.729
2962.6	638.912
2963.9	646.83
2965.2	636.621
2966.5	640.772
2967.8	639.123
2969.1	633.413
2970.4	627.095
2971.69	637.099
2972.99	632.643
2974.29	624.282
2975.59	634.27
2976.88	635.372
2978.18	627.101
2979.48	645.292
2980.77	633.107
2982.07	623.15
2983.36	625.176
2984.66	627.396
2985.95	630.498
2987.25	621.436
2988.55	630.125
2989.84	617.129
2991.13	607.935
2992.43	613.332
2993.72	613.101
2995.02	609.699
2996.31	623.337
2997.6	620.704
2998.9	608.608
3000.19	610.438
3001.48	615.189
3002.77	608.764
3004.07	618.214
3005.36	602.151
3006.65	610.972
3007.94	601.919
3009.23	603.99
3010.53	600.591
3011.82	607.28
3013.11	614.749
3014.4	605.773
3015.69	598.618
3016.98	609.805
3018.27	592.414
3019.56	587.594
3020.85	593.447
3022.13	592.614
3023.42	596.843
3024.71	599.578
3026	590.754
3027.29	592.505
3028.58	602.814
3029.86	595.965
3031.15	606.726
3032.44	602.279
3033.73	578.867
3035.01	605.947
3036.3	597.027
3037.58	600.21
3038.87	593.374
3040.16	610.096
3041.44	611.416
3042.73	601.928
3044.01	614.629
3045.3	595.709
3046.58	609.973
3047.87	595.797
3048.04	593.268
3049.33	609.262
3050.62	619.256
3051.91	611.249
3053.2	625.243
3054.49	622.57
3055.77	605.897
3057.06	617.891
3058.35	609.885
3059.64	615.879
3060.93	601.206
3062.22	619.2
3063.51	615.86
3064.79	608.521
3066.08	620.514
3067.37	620.508
3068.66	616.502
3069.94	631.162
3071.23	602.489
3072.52	614.483
3073.8	617.144
3075.09	611.137
3076.37	617.798
3077.66	619.125
3078.94	641.119
3080.23	592.446
3081.51	627.106
3082.8	608.433
3084.08	631.094
3085.37	643.754
3086.65	635.081
3087.94	625.742
3089.22	645.069
3090.5	636.396
3091.78	639.056
3093.07	644.383
3094.35	639.044
3095.63	642.371
3096.91	629.031
3098.2	631.692
3099.48	631.019
3100.76	624.346
3102.04	639.007
3103.32	648.334
3104.6	654.994
3105.88	659.655
3107.16	663.648
3108.44	642.309
3109.72	656.302
3111	646.963
3112.28	652.29
3113.56	673.617
3114.84	654.944
3116.12	656.938
3117.4	674.932
3118.68	652.926
3119.96	658.253
3121.23	671.58
3122.51	674.24
3123.79	673.567
3125.07	686.894
3126.34	680.221
3127.62	656.215
3128.9	653.542
3130.18	670.203
3131.45	693.53
3132.73	661.524
3134	690.851
3135.28	683.511
3136.55	693.505
3137.83	691.499
3139.1	687.493
3140.38	700.153
3141.65	697.48
3142.93	694.807
3144.2	722.134
3145.47	692.795
3146.75	715.455
3148.02	701.449
3149.29	711.443
3150.57	722.77
3151.84	737.43
3153.11	723.424
3154.39	706.085
3155.66	712.745
3156.93	722.072
3158.2	692.732
3159.47	717.393
3160.74	723.387
3162.01	723.38
3163.28	727.374
3164.56	732.035
3165.83	744.028
3167.1	734.689
3168.37	723.349
3169.64	741.343
3170.91	742.67
3172.18	747.331
3173.44	741.324
3174.71	759.985
3175.98	753.312
3177.25	763.972
3178.52	750.633
3179.79	743.293
3181.05	760.62
3182.32	768.614
3183.59	760.608
3184.86	735.935
3186.12	759.929
3187.39	762.589
3188.66	750.583
3189.92	743.243
3191.19	755.237
3192.45	759.231
3193.72	774.558
3194.98	755.219
3196.25	763.879
3197.51	757.206
3198.78	772.533
3200.04	777.86
3201.31	759.854
3202.57	764.514
3203.84	770.508
3205.1	765.835
3206.36	773.829
3207.63	776.49
3208.89	785.817
3210.15	759.144
3211.41	773.804
3212.68	775.798
3213.94	791.125
3215.2	767.119
3216.46	775.779
3217.72	775.106
3218.99	771.767
3220.25	770.427
3221.51	777.088
3222.77	781.081
3224.03	775.075
3225.29	776.402
3226.55	769.063
3227.81	765.723
3229.07	793.717
3230.33	780.378
3231.59	769.038
3232.84	773.698
3234.1	785.025
3235.36	773.019
3236.62	780.346
3237.88	765.673
3239.13	786.334
3240.39	776.994
3241.65	774.321
3242.91	781.648
3244.16	782.309
3245.42	750.969
3246.68	762.297
3247.93	773.624
3249.19	783.617
3250.45	778.944
3251.7	778.938
3252.96	783.599
3254.21	779.592
3255.47	780.253
3256.72	775.58
3257.98	780.24
3259.23	794.234
3260.49	775.561
3261.74	789.555
3262.99	771.549
3264.25	779.543
3265.5	774.87
3266.75	796.863
3268	813.524
3269.26	784.184
3270.51	789.511
3271.76	783.505
3273.02	778.166
3274.27	773.493
3275.52	789.487
3276.77	771.48
3278.02	795.474
3279.27	773.468
3280.52	801.462
3281.77	800.122
3283.02	770.783
3284.27	769.443
3285.52	775.437
3286.77	768.764
3288.02	773.424
3289.27	768.085
3290.52	790.079
3291.77	788.072
3293.02	786.733
3294.27	789.393
3295.51	801.387
3296.76	806.047
3298.01	770.041
3299.26	793.368
3300.5	801.362
3301.75	800.689
3303	803.35
3304.24	794.01
3305.49	797.337
3306.74	795.997
3307.99	783.991
3309.23	781.318
3310.48	781.979
3311.72	793.973
3312.97	805.966
3314.21	766.627
3315.46	803.287
3316.7	798.614
3317.94	785.275
3319.19	799.935
3320.43	785.929
3321.68	785.256
3322.92	788.583
3324.16	799.91
3325.41	803.237
3326.65	802.565
3327.89	801.225
3329.13	801.885
3330.38	775.879
3331.62	793.206
3332.86	786.533
3334.1	798.527
3335.34	794.521
3336.58	799.848
3337.83	795.175
3339.07	783.836
3340.31	787.163
3341.55	794.49
3342.79	795.817
3344.03	801.144
3345.27	785.804
3346.51	809.798
3347.75	793.125
3348.99	787.786
3350.22	806.446
3351.46	799.107
3352.7	802.434
3353.94	807.094
3355.18	806.421
3356.42	804.415
3357.65	795.742
3358.89	790.403
3360.13	801.063
3361.36	781.057
3362.6	785.051
3363.84	780.378
3365.07	806.371
3366.31	788.365
3367.55	795.026
3368.78	820.353
3370.02	793.013
3371.25	802.34
3372.49	804.334
3373.72	809.661
3374.96	808.322
3376.19	779.649
3377.43	788.309
3378.66	804.97
3379.89	810.963
3381.13	797.624
3382.36	807.618
3383.59	800.945
3384.83	794.938
3386.06	821.599
3387.29	783.593
3388.52	780.253
3389.76	802.914
3390.99	774.907
3392.22	817.568
3393.45	810.895
3394.68	803.555
3395.91	810.882
3397.15	807.543
3398.38	783.537
3399.61	818.864
3400.84	812.191
3402.07	799.518
3403.3	806.178
3404.53	797.505
3405.76	810.833
3406.99	799.493
3408.21	808.82
3409.44	810.814
3410.67	812.808
3411.9	799.468
3413.13	802.795
3414.36	814.789
3415.58	822.116
3416.81	822.11
3418.04	822.77
3419.27	811.431
3420.49	807.425
3421.72	814.752
3422.95	820.745
3424.17	809.406
3425.4	821.4
3426.62	837.393
3427.85	804.721
3429.08	816.714
3430.3	800.041
3431.53	810.035
3432.75	812.029
3433.98	791.356
3435.2	804.683
3436.42	821.344
3437.65	816.004
3438.87	799.331
3440.1	823.325
3441.32	796.652
3442.54	807.979
3443.76	825.973
3444.99	815.3
3446.21	812.627
3447.43	789.954
3448.66	798.615
3449.88	812.608
3451.1	813.935
3452.32	813.929
3453.54	832.59
3454.76	805.917
3455.98	800.577
3457.21	818.571
3458.43	809.898
3459.65	789.892
3460.87	775.219
3462.09	784.546
3463.3	795.207
3464.53	793.2
3465.74	811.861
3466.96	790.521
3468.18	799.182
3469.4	808.509
3470.62	794.503
3471.84	788.496
3473.06	791.157
3474.27	773.15
3475.49	799.144
3476.71	795.805
3477.93	782.465
3479.14	787.126
3480.36	789.119
3481.58	776.446
3482.79	771.774
3484.01	771.767
3485.22	771.094
3486.44	776.422
3487.66	767.749
3488.87	777.076
3490.09	779.736
3491.3	757.73
3492.52	762.39
3493.73	759.718
3494.95	738.378
3496.16	750.372
3497.37	739.699
3498.59	756.359
3499.8	726.353
3501.01	743.013
3502.23	729.007
3503.44	734.334
3504.65	736.328
3505.87	720.322
3507.08	734.982
3508.29	712.976
3509.5	723.637
3510.71	720.964
3511.93	720.291
3513.14	692.284
3514.35	700.278
3515.56	706.272
3516.77	716.266
3517.98	709.593
3519.19	700.92
3520.4	711.58
3521.61	682.241
3522.82	701.568
3524.03	687.562
3525.24	674.889
3526.45	691.549
3527.66	688.21
3528.86	675.537
3530.07	679.531
3531.28	683.524
3532.49	700.852
3533.7	674.845
3534.9	679.506
3536.11	690.166
3537.32	671.493
3538.53	679.487
3539.73	677.481
3540.94	667.475
3542.15	652.802
3543.35	639.462
3544.56	653.456
3545.76	663.45
3546.97	662.777
3548.18	664.104
3549.38	646.764
3550.59	664.091
3551.79	645.419
3553	646.079
3554.2	658.073
3555.4	626.733
3556.61	644.06
3557.81	638.054
3559.02	648.715
3560.22	652.042
3561.42	639.369
3562.62	644.696
3563.83	646.69
3565.03	642.017
3566.23	640.01
3567.44	643.338
3568.64	644.665
3569.84	629.325
3571.04	621.986
3572.24	613.313
3573.44	641.973
3574.64	631.3
3575.84	628.627
3577.04	627.954
3578.25	637.281
3579.45	632.609
3580.65	618.602
3581.84	620.596
3583.04	624.59
3584.24	595.25
3585.44	621.911
3586.64	619.905
3587.84	607.232
3589.04	607.892
3590.24	619.219
3591.44	616.546
3592.63	617.873
3593.83	601.201
3595.03	621.194
3596.23	623.855
3597.42	613.849
3598.62	602.509
3599.82	606.503
3601.01	605.83
3602.21	616.49
3603.41	603.817
3604.6	599.811
3605.8	599.805
3606.99	605.132
3608.19	592.459
3609.38	585.786
3610.58	605.113
3611.77	602.44
3612.97	606.434
3614.16	576.428
3615.36	609.755
3616.55	573.749
3617.74	596.409
3618.94	603.736
3620.13	582.397
3621.32	592.391
3622.52	586.384
3623.71	586.378
3624.9	586.372
3626.09	583.699
3627.29	596.359
3628.48	589.687
3629.67	575.68
3630.86	580.341
3632.05	547.668
3633.24	561.662
3634.44	575.655
3635.63	579.649
3636.82	593.643
3638.01	583.637
3639.2	577.63
3640.39	563.624
3641.58	568.951
3642.77	555.612
3643.95	560.272
3645.15	571.599
3646.33	567.593
3647.52	570.254
3648.71	570.914
3649.9	543.574
3651.09	552.235
3652.28	571.562
3653.46	559.556
3654.65	554.216
3655.84	540.21
3657.03	551.537
3658.21	554.864
3659.4	549.525
3660.58	536.185
3661.77	537.512
3662.96	534.839
3664.14	544.833
3665.33	545.494
3666.52	544.154
3667.7	545.481
3668.89	552.808
3670.07	535.469
3671.25	534.796
3672.44	514.123
3673.62	526.783
3674.81	539.444
3675.99	541.438
3677.18	523.431
3678.36	530.092
3679.54	518.752
3680.73	520.746
3681.91	516.74
3683.09	516.067
3684.27	514.061
3685.46	506.054
3686.64	508.715
3687.82	511.375
3689	518.036
3690.19	521.363
3691.37	503.356
3692.55	504.684
3693.73	516.011
3694.91	511.338
3696.09	503.998
3697.27	487.992
3698.45	519.986
3699.63	503.313
3700.81	517.307
3701.99	509.3
3703.17	493.294
3704.35	510.621
3705.53	511.948
3706.71	514.609
3707.89	517.269
3709.06	513.93
3710.24	509.923
3711.42	511.251
3712.6	493.911
3713.78	494.571
3714.95	509.232
3716.13	505.892
3717.31	510.553
3718.48	516.547
3719.66	496.54
3720.84	511.201
3722.01	504.528
3723.19	509.855
3724.37	514.515
3725.54	516.509
3726.72	515.836
3727.89	498.497
3729.07	513.824
3730.24	529.151
3731.42	519.811
3732.59	507.138
3733.77	523.132
3734.94	512.459
3736.12	524.453
3737.29	523.114
3738.46	520.441
3739.64	533.768
3740.81	528.428
3741.98	526.422
3743.15	524.416
3744.33	524.41
3745.5	529.07
3746.67	533.73
3747.84	547.724
3749.02	515.051
3750.19	525.045
3751.36	539.039
3752.53	537.699
3753.7	542.36
3754.87	534.354
3756.04	523.681
3757.21	539.008
3758.38	541.668
3759.55	543.662
3760.72	512.322
3761.89	545.649
3763.06	544.31
3764.23	546.97
3765.4	532.297
3766.57	547.625
3767.74	550.285
3768.91	552.279
3770.08	546.273
3771.24	561.6
3772.41	539.593
3773.58	540.92
3774.75	552.248
3775.91	530.908
3777.08	550.235
3778.25	560.896
3779.41	538.889
3780.58	552.883
3781.75	543.544
3782.91	557.537
3784.08	549.531
3785.25	564.192
3786.41	544.852
3787.58	542.846
3788.74	560.839
3789.91	543.5
3791.07	545.494
3792.24	548.154
3793.4	534.815
3794.57	557.475
3795.73	550.802
3796.89	544.129
3798.06	546.79
3799.22	546.783
3800.38	560.111
3801.55	548.771
3802.71	552.765
3803.87	550.092
3805.03	548.752
3806.2	570.746
3807.36	548.74
3808.52	551.734
3809.68	552.061
3810.84	544.721
3812.01	557.382
3813.17	554.042
3814.33	556.036
3815.49	555.363
3816.65	559.357
3817.81	564.684
3818.97	552.678
3820.13	554.005
3821.29	575.332
3822.45	575.326
3823.61	559.319
3824.77	565.313
3825.93	557.974
3827.09	583.967
3828.24	580.628
3829.4	561.288
3830.56	568.615
3831.72	560.609
3832.88	563.27
3834.04	561.263
3835.19	585.257
3836.35	568.584
3837.51	581.911
3838.66	577.238
3839.82	587.899
3840.98	581.226
3842.13	583.886
3843.29	583.88
3844.45	592.541
3845.6	591.868
3846.76	577.195
3847.91	582.522
3849.07	587.182
3850.22	591.176
3851.38	579.837
3852.53	586.497
3853.69	609.824
3854.84	588.484
3856	599.145
3857.15	585.139
3858.3	605.133
3859.46	607.126
3860.61	580.453
3861.76	591.114
3862.92	606.441
3864.07	603.768
3865.22	595.762
3866.37	600.422
3867.53	607.083
3868.68	619.743
3869.83	607.07
3870.98	598.397
3872.13	623.058
3873.28	616.385
3874.43	614.379
3875.59	616.372
3876.74	621.033
3877.89	629.027
3879.04	631.02
3880.19	647.681
3881.34	631.008
3882.49	649.002
3883.64	634.329
3884.79	637.656
3885.93	621.65
3887.08	622.31
3888.23	643.637
3889.38	638.298
3890.53	646.291
3891.68	653.619
3892.83	648.279
3893.97	645.606
3895.12	666.267
3896.27	642.927
3897.41	664.921
3898.56	668.914
3899.71	658.908
3900.86	666.902
3902	650.896
3903.15	654.223
3904.29	658.883
3905.44	675.544
3906.59	660.204
3907.73	684.198
3908.88	690.192
3910.02	672.852
3911.17	668.179
3912.31	680.84
3913.46	681.5
3914.6	675.494
3915.75	684.154
3916.89	686.815
3918.03	698.142
3919.18	672.802
3920.32	697.463
3921.46	685.457
3922.61	701.45
3923.75	708.777
3924.89	700.771
3926.03	722.098
3927.18	697.425
3928.32	692.086
3929.46	694.746
3930.6	712.74
3931.74	708.734
3932.89	700.061
3934.03	723.388
3935.17	700.049
3936.31	714.709
3937.45	707.369
3938.59	733.363
3939.73	730.024
3940.87	720.017
3942.01	701.345
3943.15	726.005
3944.29	733.332
3945.43	750.659
3946.57	713.986
3947.71	719.313
3948.84	711.974
3949.98	725.968
3951.12	742.628
3952.26	732.622
3953.4	736.615
3954.54	721.943
3955.67	751.936
3956.81	729.263
3957.95	740.591
3959.09	732.584
3960.22	735.911
3961.36	755.239
3962.5	761.899
3963.63	755.893
3964.77	759.887
3965.9	747.214
3967.04	753.874
3968.18	737.201
3969.31	755.862
3970.45	754.522
3971.58	769.849
3972.72	772.51
3973.85	781.837
3974.99	761.831
3976.12	753.824
3977.25	767.151
3978.39	777.145
3979.52	773.139
3980.65	769.799
3981.79	781.127
3982.92	774.454
3984.05	769.781
3985.19	783.108
3986.32	789.102
3987.45	761.762
3988.58	789.756
3989.72	817.083
3990.85	785.743
3991.98	785.737
3993.11	793.064
3994.24	797.058
3995.37	791.052
3996.5	815.712
3997.64	831.039
3998.77	797.033
3999.9	810.36
