#Acq. time (s)=	15
#Accumulations=	4
#Range (cm-¹)=	50...4000
#Windows=	3
#Autofocus=	Off
#AutoExposure=	Off
#Spike filter=	Multiple accum.
#Delay time (s)=	0
#Binning=	1
#Readout mode=	Signal
#DeNoise=	Off
#ICS correction=	Off
#Dark correction=	Off
#Inst. Process=	Off
#Instrument=	LabRAM HR Evol
#Detector=	Syncerity OE
#Objective=	x100_VIS
#Grating=	600 (500nm)
#ND Filter=	5%
#Laser=	532nm_Edge
#Hole=	100.021
#Range=	Visible
#Project=	Omar
#Sample=	120523
#Site=	ap
#Title=	mz
#Remark=	5 laser intensity
#Date=	12.05.2023 17:13
#Acquired=	12.05.2023 17:13:03
51.0297	20.6667
52.8754	30.5652
54.7185	31.7971
56.5635	34.3624
58.406	39.5943
60.2502	58.1595
62.0919	60.7248
63.9355	85.29
65.7765	112.522
67.6193	131.754
69.4595	153.652
71.3016	190.218
73.1412	235.45
74.9825	257.348
76.8214	280.58
78.662	311.145
80.5001	327.044
82.34	339.609
84.1774	369.508
86.0166	394.073
87.8532	388.638
89.6917	399.203
91.5276	413.769
93.3632	413.667
95.2006	410.899
97.0355	404.131
98.8721	413.363
100.706	419.928
102.54	407.827
104.376	419.725
106.209	421.624
108.041	422.856
109.876	436.088
111.708	431.986
113.542	425.218
115.373	437.783
117.204	439.015
119.036	452.247
120.867	443.479
122.697	446.044
124.526	439.276
126.357	437.841
128.186	439.74
130.014	451.639
131.845	434.871
133.672	452.102
135.5	446.001
137.327	443.233
139.155	452.465
140.982	445.03
142.807	452.929
144.633	456.161
146.46	446.059
148.285	445.291
150.11	446.523
151.934	452.422
153.757	460.987
155.583	453.552
157.406	458.784
159.229	467.349
161.051	443.248
162.873	454.48
164.697	462.378
166.518	455.61
168.339	452.842
170.159	464.074
171.98	463.973
173.799	454.538
175.619	461.103
177.44	443.002
179.259	456.233
181.077	466.132
182.895	464.697
184.713	471.929
186.53	467.828
188.347	471.726
190.164	475.625
191.98	462.19
193.796	484.755
195.612	479.987
197.427	451.886
199.242	470.451
201.059	468.35
202.873	474.915
204.686	478.147
206.5	476.712
208.313	476.611
210.126	473.176
211.938	476.408
213.75	468.973
215.562	474.205
217.373	482.77
219.184	468.669
220.993	467.234
222.803	475.133
224.613	471.698
226.422	463.596
228.232	475.495
230.04	467.394
231.849	468.625
233.657	473.857
235.465	468.423
237.272	474.988
239.079	486.22
240.886	484.118
242.693	472.017
244.497	476.582
246.302	471.147
248.108	478.379
249.913	491.611
251.717	480.843
253.521	488.075
255.325	472.64
257.127	493.872
258.93	481.104
260.733	497.003
262.535	473.568
264.338	484.8
266.137	487.365
267.939	475.264
269.74	485.162
271.541	484.394
273.341	486.959
275.139	484.858
276.939	476.756
278.738	482.655
280.537	474.554
282.334	472.452
284.132	493.017
285.93	479.583
287.728	484.815
289.523	474.713
291.32	471.945
293.117	477.844
294.911	485.076
296.707	502.307
298.502	498.206
300.295	493.438
302.09	486.67
303.885	482.568
305.677	501.134
307.47	491.699
309.264	499.597
311.055	496.163
312.848	492.061
314.64	504.626
316.43	489.192
318.222	501.09
320.011	497.656
321.802	497.554
323.593	489.453
325.381	497.351
327.171	497.916
328.958	491.815
330.748	504.38
332.535	502.279
334.323	484.844
336.109	495.409
337.897	499.975
339.685	505.206
341.47	484.438
343.257	494.337
345.041	499.569
346.827	496.134
348.611	502.699
350.397	491.931
352.18	499.83
353.962	499.062
355.747	498.294
357.529	501.526
359.312	492.757
361.094	499.989
362.877	514.555
364.658	507.786
366.44	491.018
368.22	489.584
369.999	508.149
371.781	496.714
373.56	509.946
375.34	505.845
377.119	507.743
378.896	512.308
380.676	507.54
382.453	503.439
384.23	504.671
386.009	512.569
387.785	496.468
389.561	507.033
391.338	495.598
393.113	518.83
394.888	518.062
396.665	523.294
398.439	505.859
400.213	511.758
401.988	502.323
403.761	512.222
405.534	514.787
407.306	504.686
409.081	491.918
410.852	508.483
412.624	502.381
414.395	526.28
416.167	512.845
417.938	516.077
419.708	513.976
421.477	504.541
423.249	521.773
425.018	497.671
426.786	508.237
428.555	523.469
430.323	518.034
432.092	512.599
433.86	503.164
435.627	507.729
437.393	518.295
439.16	496.193
440.926	505.425
442.691	521.99
444.458	514.556
446.223	519.121
447.988	512.353
449.752	517.585
451.516	518.15
453.28	504.049
455.043	524.614
456.806	517.179
458.568	531.078
460.33	516.976
462.092	527.541
463.854	535.44
465.615	515.339
467.378	517.237
469.138	518.469
470.899	542.368
472.658	540.266
474.418	529.498
476.177	522.063
477.936	519.295
479.694	536.527
481.452	545.759
483.21	528.991
484.966	530.223
486.723	519.455
488.48	532.02
490.236	541.919
491.992	525.15
493.748	522.382
495.503	520.948
497.258	535.513
499.013	530.078
500.768	525.31
502.522	537.209
504.276	520.44
506.029	547.006
507.78	528.904
509.533	542.136
511.285	539.368
513.037	524.6
514.789	529.832
516.54	532.397
518.289	530.296
520.04	546.194
521.791	528.093
523.541	551.325
525.29	546.557
527.04	537.122
528.787	531.687
530.536	542.919
532.284	526.818
534.032	532.05
535.778	547.281
537.525	545.847
539.272	539.079
541.019	538.977
542.763	527.542
544.509	545.441
546.255	540.006
548	525.905
549.743	554.47
551.488	537.702
553.232	550.934
554.974	554.832
556.718	550.064
558.462	571.296
560.203	547.862
561.945	543.76
563.688	554.325
565.428	553.557
567.169	544.789
568.911	531.354
570.65	548.586
572.391	550.485
574.129	536.383
575.869	536.949
577.609	542.847
579.346	556.746
581.085	553.311
582.822	551.21
584.56	556.442
586.296	543.007
588.034	552.905
589.771	542.137
591.506	546.036
593.243	543.934
594.978	553.833
596.714	541.732
598.447	556.297
600.183	543.529
601.916	533.427
603.651	530.659
605.383	538.558
607.117	547.79
608.849	551.688
610.582	545.587
612.313	534.152
614.044	553.384
615.776	570.616
617.507	537.181
619.238	553.746
620.968	544.312
622.699	545.544
624.428	554.109
626.156	554.007
627.886	552.573
629.614	561.804
631.342	550.37
633.071	572.935
634.797	573.5
636.526	574.732
638.252	555.964
639.978	573.863
641.705	567.761
643.431	571.66
645.155	570.892
646.88	560.123
648.606	593.355
650.33	571.254
652.053	559.819
653.779	570.384
655.502	569.616
657.224	560.182
658.946	562.747
660.67	573.312
662.392	584.544
664.113	576.443
665.834	571.008
667.556	577.573
669.277	574.138
670.997	568.703
672.716	561.935
674.435	569.167
676.156	567.066
677.875	574.298
679.593	566.863
681.311	559.428
683.029	565.327
684.746	559.225
686.465	582.457
688.182	576.356
689.898	562.921
691.614	563.486
693.33	594.052
695.045	581.284
696.76	574.515
698.475	585.747
700.189	557.646
701.904	561.545
703.619	564.776
705.333	568.675
707.046	572.574
708.759	569.139
710.471	576.371
712.183	567.603
713.895	573.501
715.606	588.733
717.317	579.965
719.028	590.53
720.739	589.095
722.449	590.327
724.159	576.226
725.868	586.125
727.578	580.69
729.286	571.255
730.995	601.154
732.703	592.385
734.409	574.284
736.117	590.849
737.824	590.081
739.531	587.98
741.237	613.878
742.944	587.777
744.65	591.675
746.355	592.241
748.061	588.139
749.766	576.705
751.468	567.27
753.173	591.168
754.877	615.067
756.581	585.632
758.284	593.531
759.987	576.096
761.688	583.328
763.39	591.893
765.092	580.458
766.794	595.024
768.496	573.589
770.195	580.154
771.896	587.386
773.596	578.618
775.296	584.516
776.994	585.748
778.694	586.314
780.393	601.546
782.092	594.777
783.788	584.676
785.487	595.908
787.185	594.473
788.882	597.038
790.578	592.27
792.274	586.836
793.971	569.401
795.666	580.633
797.362	598.531
799.057	593.096
800.751	600.995
802.446	592.894
804.138	604.792
805.833	584.691
807.527	602.589
809.219	597.821
810.912	605.053
812.605	597.618
814.296	596.184
815.989	606.082
817.679	577.314
819.371	585.213
821.06	601.778
822.752	598.343
824.441	598.908
826.131	614.807
827.822	601.372
829.51	618.604
831.199	615.169
832.887	613.735
834.576	610.967
836.262	604.198
837.951	602.097
839.637	615.996
841.323	611.228
843.01	611.126
844.695	599.025
846.382	625.59
848.066	605.488
849.753	612.054
851.436	625.952
853.122	601.184
854.805	608.416
856.488	624.981
858.173	621.547
859.855	618.112
861.539	614.677
863.221	639.242
864.902	637.808
866.585	632.373
868.266	624.938
869.946	627.503
871.628	632.735
873.308	637.967
874.987	633.199
876.668	633.098
878.347	623.663
880.026	639.561
881.704	628.127
883.384	610.692
885.061	613.257
886.739	619.156
888.418	601.054
890.094	625.62
891.771	620.185
893.447	605.417
895.122	611.315
896.799	608.547
898.475	607.779
900.149	618.344
901.824	617.576
903.498	614.808
905.174	614.04
906.847	609.272
908.52	608.504
910.193	611.736
911.866	614.968
913.538	626.199
915.212	616.765
916.883	613.33
918.555	623.895
920.226	631.127
921.896	615.026
923.567	610.258
925.237	620.823
926.907	612.721
928.576	625.953
930.245	615.852
931.914	621.75
933.584	634.316
935.253	623.548
936.92	617.446
938.588	626.011
940.255	620.577
941.922	615.809
943.589	623.041
945.255	634.272
946.921	636.171
948.587	645.403
950.252	672.635
951.917	631.867
953.582	653.765
955.244	637.664
956.909	662.229
958.572	659.461
960.236	647.36
961.899	669.925
963.562	656.49
965.225	673.722
966.887	669.621
968.549	665.519
970.211	656.084
971.872	639.316
973.531	651.215
975.192	647.113
976.852	623.012
978.512	640.911
980.172	641.476
981.831	630.041
983.489	659.273
985.148	638.505
986.806	632.403
988.464	666.302
990.122	648.867
991.778	646.099
993.435	664.664
995.092	658.563
996.749	661.795
998.404	671.027
1000.06	698.925
1001.72	713.491
1003.37	724.056
1005.02	740.621
1006.68	747.186
1008.33	739.085
1009.99	740.317
1011.64	734.882
1013.29	717.447
1014.95	702.012
1016.6	681.911
1018.25	675.81
1019.9	680.375
1021.55	682.94
1023.2	660.839
1024.85	672.737
1026.51	659.969
1028.16	646.534
1029.81	667.766
1031.46	648.331
1033.1	643.563
1034.75	646.795
1036.4	632.694
1038.05	649.259
1039.7	643.158
1041.34	649.723
1042.99	656.955
1044.64	653.52
1046.29	650.085
1047.93	649.984
1049.58	645.883
1051.22	637.114
1052.87	653.013
1054.51	634.245
1056.16	643.477
1057.8	644.709
1059.45	660.607
1061.09	650.506
1062.73	649.738
1064.38	647.636
1066.02	656.202
1067.66	645.434
1069.3	677.332
1070.95	651.897
1072.59	649.796
1074.23	651.028
1075.87	654.926
1077.51	652.825
1079.15	660.724
1080.79	646.622
1082.43	639.187
1084.07	639.086
1085.71	638.318
1087.35	662.883
1088.99	670.115
1090.62	650.013
1092.26	649.912
1093.9	665.144
1095.53	657.043
1097.17	642.274
1098.81	638.173
1100.44	638.738
1102.08	653.97
1103.71	651.202
1105.35	655.101
1106.99	660.333
1108.62	658.231
1110.25	647.463
1111.89	666.028
1113.52	641.927
1115.15	645.825
1116.79	667.057
1118.42	659.623
1120.05	675.521
1121.68	679.42
1123.31	650.652
1124.95	685.217
1126.58	668.449
1128.21	688.347
1129.84	679.579
1131.47	700.144
1133.1	684.043
1134.73	703.942
1136.36	695.174
1137.98	725.072
1139.61	704.971
1141.24	728.869
1142.87	732.768
1144.5	732.666
1146.12	772.565
1147.75	778.464
1149.38	789.029
1151	857.594
1152.63	878.826
1154.26	933.391
1155.88	988.623
1157.51	1016.52
1159.13	1025.75
1160.76	990.986
1162.38	957.551
1164	892.116
1165.63	820.681
1167.25	799.913
1168.87	764.478
1170.49	743.044
1172.12	726.276
1173.74	734.174
1175.36	736.739
1176.98	750.638
1178.6	740.536
1180.22	739.768
1181.84	733
1183.46	748.899
1185.08	774.797
1186.7	753.363
1188.32	773.928
1189.94	771.16
1191.56	785.725
1193.18	779.624
1194.79	769.522
1196.41	722.087
1198.03	737.986
1199.64	743.885
1201.26	728.45
1202.88	724.348
1204.49	730.247
1206.11	719.479
1207.72	694.044
1209.34	707.943
1210.95	710.508
1212.57	723.073
1214.18	737.638
1215.8	703.537
1217.41	714.769
1219.02	696.001
1220.64	691.233
1222.25	675.798
1223.86	665.697
1225.47	665.595
1227.08	643.494
1228.69	652.726
1230.3	667.291
1231.92	652.523
1233.53	677.088
1235.14	646.987
1236.75	657.552
1238.35	645.45
1239.96	660.682
1241.57	667.914
1243.18	639.146
1244.79	656.378
1246.4	646.277
1248.01	645.508
1249.61	641.407
1251.22	663.306
1252.82	687.871
1254.43	672.436
1256.04	662.335
1257.64	678.233
1259.25	662.798
1260.85	672.03
1262.46	674.596
1264.06	669.161
1265.67	665.726
1267.27	671.625
1268.87	680.19
1270.48	670.089
1272.08	669.987
1273.68	679.886
1275.28	658.451
1276.89	692.349
1278.49	663.581
1280.09	665.48
1281.69	678.712
1283.29	664.61
1284.89	679.842
1286.49	659.074
1288.09	664.64
1289.69	670.205
1291.29	678.77
1292.89	668.669
1294.49	672.567
1296.09	686.466
1297.68	679.031
1299.28	668.93
1300.88	672.161
1302.48	678.06
1304.07	679.959
1305.67	667.857
1307.26	665.756
1308.86	674.321
1310.46	668.886
1312.05	662.785
1313.65	679.35
1315.24	671.915
1316.84	667.147
1318.43	660.379
1320.02	674.278
1321.62	666.843
1323.21	676.075
1324.8	663.307
1326.39	661.205
1327.99	661.104
1329.58	671.669
1331.17	646.234
1332.76	659.466
1334.35	652.698
1335.94	657.263
1337.53	662.495
1339.12	656.394
1340.71	664.959
1342.3	658.858
1343.89	674.09
1345.48	658.655
1347.07	651.22
1348.65	662.452
1350.24	635.017
1351.83	666.916
1353.42	674.814
1355	679.38
1356.59	663.278
1358.18	659.177
1359.76	656.409
1361.35	658.307
1362.93	648.872
1364.52	646.771
1366.1	657.336
1367.69	658.568
1369.27	650.467
1370.86	661.699
1372.44	644.93
1374.02	644.829
1375.61	653.394
1377.19	646.626
1378.77	661.858
1380.35	639.757
1381.93	679.655
1383.52	668.887
1385.1	666.119
1386.68	664.018
1388.26	674.583
1389.84	643.148
1391.42	666.38
1393	663.612
1394.58	651.51
1396.16	649.409
1397.74	661.974
1399.31	644.54
1400.89	673.105
1402.47	666.337
1404.05	656.902
1405.63	647.467
1407.2	653.366
1408.78	673.931
1410.36	661.83
1411.93	657.062
1413.51	667.627
1415.08	690.859
1416.66	658.091
1418.23	667.989
1419.81	641.221
1421.38	658.453
1422.95	663.018
1424.53	666.25
1426.1	674.815
1427.68	676.047
1429.25	685.946
1430.82	677.178
1432.39	677.743
1433.96	677.642
1435.54	670.873
1437.11	689.439
1438.68	678.004
1440.25	665.236
1441.82	689.801
1443.39	713.7
1444.96	694.932
1446.53	703.497
1448.1	676.062
1449.67	697.961
1451.23	685.193
1452.8	691.758
1454.37	681.656
1455.94	696.222
1457.5	676.12
1459.07	690.685
1460.64	691.251
1462.21	685.149
1463.77	697.048
1465.34	672.946
1466.9	670.845
1468.47	670.077
1470.03	670.642
1471.6	687.874
1473.16	685.106
1474.72	685.004
1476.29	681.57
1477.85	679.468
1479.42	674.034
1480.98	682.599
1482.54	687.831
1484.1	701.729
1485.66	663.628
1487.23	688.86
1488.79	697.425
1490.35	703.324
1491.91	691.889
1493.47	709.121
1495.03	702.353
1496.59	706.918
1498.15	726.816
1499.71	710.715
1501.27	728.614
1502.83	741.845
1504.39	736.411
1505.94	756.976
1507.5	762.208
1509.06	789.44
1510.62	815.338
1512.17	828.57
1513.73	868.469
1515.29	909.701
1516.84	986.266
1518.4	1004.83
1519.95	1060.06
1521.51	1089.3
1523.06	1135.86
1524.62	1153.76
1526.17	1146.99
1527.72	1156.22
1529.28	1126.12
1530.83	1101.35
1532.38	1017.92
1533.94	993.15
1535.49	923.049
1537.04	878.947
1538.59	830.179
1540.15	822.745
1541.7	787.976
1543.25	764.542
1544.8	763.774
1546.35	762.339
1547.9	740.237
1549.45	738.136
1551	724.035
1552.55	725.266
1554.1	697.165
1555.65	694.397
1557.19	686.962
1558.74	692.861
1560.29	696.093
1561.84	677.325
1563.38	699.223
1564.93	686.455
1566.48	677.687
1568.02	674.252
1569.57	702.151
1571.12	678.049
1572.66	685.281
1574.2	664.513
1575.75	677.078
1577.3	691.644
1578.84	663.542
1580.38	687.441
1581.93	675.339
1583.47	673.238
1585.01	666.47
1586.56	659.035
1588.1	660.267
1589.64	658.832
1591.18	670.064
1592.72	677.963
1594.27	660.528
1595.81	674.426
1597.35	650.325
1598.89	659.557
1600.43	666.122
1601.97	672.688
1603.51	669.253
1605.05	674.485
1606.59	668.27
1608.12	664.504
1609.66	645.923
1611.2	666.647
1612.74	653.146
1614.27	647.473
1615.81	662.212
1617.35	644.417
1618.89	653.246
1620.42	638.177
1621.96	638.695
1623.5	656.214
1625.03	654.969
1626.57	656.472
1628.1	651.291
1629.63	663.63
1631.17	642.016
1632.7	644.426
1634.24	643.449
1635.77	651.528
1637.3	659.522
1638.84	651.843
1640.37	661.235
1641.9	652.523
1643.43	655.563
1644.97	648.356
1646.5	643.89
1648.03	649.187
1649.56	650.798
1651.09	656.751
1652.62	653.161
1654.15	640.685
1655.68	640.461
1657.21	648.614
1658.74	648.987
1660.27	663.065
1661.79	644.689
1663.32	651.063
1664.85	667.427
1666.38	659.662
1667.91	656.096
1669.43	651.195
1670.96	654.086
1672.49	640.298
1674.01	645.146
1675.54	652.781
1677.06	655.415
1678.59	663.854
1680.11	653.021
1681.64	651.686
1683.16	652.874
1684.69	646.069
1686.21	648.607
1687.73	648.879
1689.26	648.627
1690.78	659.422
1692.3	647.31
1693.83	661.193
1695.35	657.496
1696.87	650.535
1698.39	649.569
1699.91	654.299
1701.43	650.488
1702.96	629.681
1704.48	647.12
1706	638.924
1707.52	645.201
1709.04	630.135
1710.55	652.689
1712.07	648.267
1713.59	643.626
1715.11	643.93
1716.63	633.136
1718.15	634.696
1719.66	645.133
1721.18	644.435
1722.7	641.669
1724.21	633.826
1725.73	639.961
1727.25	633.535
1728.76	644.239
1730.28	641.948
1731.8	645.93
1733.31	636.852
1734.82	634.364
1736.34	640.871
1737.85	621.336
1739.37	639.671
1740.88	629.848
1742.39	643.37
1743.91	623.323
1745.42	622.699
1746.93	627.104
1748.45	634.902
1749.96	637.35
1751.47	636.485
1752.98	634.33
1754.49	624.027
1756	632.023
1757.51	625.868
1757.73	624.445
1759.25	637.716
1760.77	643.654
1762.28	616.924
1763.8	627.529
1765.31	625.466
1766.83	625.404
1768.34	632.008
1769.86	638.612
1771.37	627.216
1772.89	635.82
1774.4	627.758
1775.92	621.695
1777.43	631.633
1778.94	622.904
1780.46	654.175
1781.97	639.446
1783.48	626.05
1784.99	630.654
1786.51	635.258
1788.02	641.196
1789.53	623.133
1791.04	633.071
1792.55	641.008
1794.06	608.279
1795.57	638.883
1797.08	624.821
1798.59	635.425
1800.1	636.696
1801.61	619.3
1803.12	620.571
1804.63	613.842
1806.13	645.78
1807.64	624.384
1809.15	610.988
1810.66	630.259
1812.16	637.549
1813.67	641.506
1815.18	634.797
1816.68	634.087
1818.19	629.377
1819.7	639.334
1821.2	637.291
1822.71	636.581
1824.21	630.538
1825.72	621.162
1827.22	629.786
1828.72	635.076
1830.23	630.366
1831.73	647.657
1833.23	616.28
1834.74	612.237
1836.24	618.861
1837.74	615.485
1839.24	623.442
1840.75	620.065
1842.25	634.022
1843.75	629.979
1845.25	635.269
1846.75	629.893
1848.25	613.184
1849.75	636.474
1851.25	632.431
1852.75	617.054
1854.25	625.678
1855.75	616.302
1857.25	627.592
1858.75	621.549
1860.24	612.839
1861.74	616.796
1863.24	631.42
1864.74	627.377
1866.23	628.001
1867.73	629.958
1869.23	629.915
1870.72	620.538
1872.22	619.829
1873.71	623.786
1875.21	617.743
1876.7	633.7
1878.2	610.99
1879.69	610.947
1881.19	620.237
1882.68	634.194
1884.18	642.151
1885.67	630.108
1887.16	636.732
1888.66	629.355
1890.15	623.979
1891.64	631.269
1893.13	638.56
1894.62	627.183
1896.11	631.14
1897.61	620.431
1899.1	629.054
1900.59	633.678
1902.08	624.302
1903.57	624.925
1905.06	620.882
1906.55	654.172
1908.04	634.796
1909.53	611.42
1911.02	634.71
1912.5	627.334
1913.99	625.291
1915.48	609.914
1916.97	618.538
1918.46	630.495
1919.94	639.119
1921.43	618.409
1922.92	629.033
1924.4	630.323
1925.89	636.28
1927.37	639.57
1928.86	637.527
1930.34	625.484
1931.83	624.775
1933.31	622.732
1934.8	642.022
1936.28	641.979
1937.77	637.269
1939.25	632.56
1940.73	613.85
1942.22	614.473
1943.7	623.097
1945.18	626.387
1946.66	641.678
1948.14	619.635
1949.63	627.592
1951.11	617.549
1952.59	634.172
1954.07	620.796
1955.55	636.753
1957.03	618.71
1958.51	604.667
1959.99	612.624
1961.47	614.581
1962.95	609.871
1964.43	623.161
1965.91	599.119
1967.39	617.076
1968.86	620.366
1970.34	629.656
1971.82	631.613
1973.3	638.903
1974.77	624.194
1976.25	616.817
1977.73	638.774
1979.2	604.731
1980.68	624.688
1982.15	617.312
1983.63	629.936
1985.1	603.226
1986.58	621.85
1988.05	619.807
1989.53	623.764
1991	609.054
1992.47	617.678
1993.95	611.635
1995.42	610.925
1996.89	637.549
1998.37	610.839
1999.84	612.129
2001.31	615.419
2002.78	596.043
2004.25	609.333
2005.73	610.624
2007.2	625.914
2008.67	619.204
2010.14	630.495
2011.61	621.785
2013.08	601.742
2014.55	627.032
2016.02	620.323
2017.49	612.28
2018.96	618.903
2020.42	620.86
2021.89	608.151
2023.36	621.441
2024.83	622.065
2026.3	629.355
2027.76	617.312
2029.23	600.602
2030.7	629.226
2032.16	612.516
2033.63	619.14
2035.09	610.43
2036.56	602.387
2038.03	613.677
2039.49	616.301
2040.96	620.258
2042.42	610.882
2043.88	608.839
2045.35	625.462
2046.81	594.753
2048.28	612.043
2049.74	611.333
2051.2	627.29
2052.67	625.247
2054.13	615.871
2055.59	609.161
2057.05	609.118
2058.51	600.409
2059.97	607.699
2061.43	610.322
2062.9	613.613
2064.36	626.903
2065.82	617.527
2067.28	598.817
2068.74	611.441
2070.2	614.731
2071.65	610.688
2073.11	609.312
2074.57	600.602
2076.03	611.892
2077.49	615.183
2078.95	611.806
2080.4	618.43
2081.86	613.054
2083.32	607.677
2084.78	608.301
2086.23	604.258
2087.69	594.881
2089.15	608.172
2090.6	602.129
2092.05	602.086
2093.51	593.376
2094.97	598
2096.42	599.957
2097.87	594.58
2099.33	606.537
2100.78	597.161
2102.24	616.451
2103.69	609.075
2105.14	591.032
2106.6	623.656
2108.05	600.946
2109.5	604.236
2110.95	602.193
2112.4	592.15
2113.86	598.107
2115.31	602.731
2116.76	597.354
2118.21	599.312
2119.66	600.602
2121.11	594.559
2122.56	579.182
2124.01	601.806
2125.46	607.096
2126.91	593.053
2128.35	597.01
2129.8	585.634
2131.25	588.258
2132.7	611.548
2134.15	599.505
2135.59	591.462
2137.04	606.086
2138.49	600.043
2139.94	596
2141.38	589.957
2142.83	599.914
2144.27	595.204
2145.72	599.827
2147.16	595.118
2148.61	601.075
2150.05	598.365
2151.5	594.322
2152.94	585.612
2154.39	591.569
2155.83	582.86
2157.27	596.817
2158.72	595.44
2160.16	598.731
2161.6	596.021
2163.05	600.645
2164.49	599.268
2165.93	584.559
2167.37	604.516
2168.81	611.139
2170.26	603.763
2171.7	595.053
2173.14	589.677
2174.58	586.967
2176.02	618.924
2177.46	574.881
2178.9	602.172
2180.34	601.462
2181.77	590.752
2183.21	594.042
2184.65	588.666
2186.09	601.956
2187.53	582.58
2188.97	603.204
2190.4	606.494
2191.84	601.118
2193.28	601.075
2194.71	604.365
2196.15	587.655
2197.59	578.946
2199.02	598.236
2200.46	585.526
2201.89	606.817
2203.33	588.774
2204.76	593.397
2206.2	584.687
2207.63	585.311
2209.07	573.268
2210.5	586.558
2211.93	597.849
2213.37	584.472
2214.8	573.096
2216.23	564.386
2217.67	577.01
2219.1	576.967
2220.53	578.257
2221.96	577.548
2223.39	570.838
2224.82	581.462
2226.26	572.752
2227.69	581.376
2229.12	564.666
2230.55	560.623
2231.98	571.247
2233.41	571.204
2234.84	561.16
2236.26	566.451
2237.69	562.408
2239.12	569.698
2240.55	555.655
2241.98	572.279
2243.41	564.236
2244.83	553.526
2246.26	559.483
2247.69	563.44
2249.11	575.397
2250.54	565.354
2251.97	562.644
2253.39	563.268
2254.82	559.892
2256.24	577.849
2257.67	553.139
2259.09	548.429
2260.52	551.72
2261.94	563.677
2263.37	560.3
2264.79	562.257
2266.22	575.547
2267.64	568.838
2269.06	557.461
2270.49	561.418
2271.91	554.042
2273.33	552.666
2274.75	569.289
2276.18	561.246
2277.59	543.203
2279.02	560.494
2280.44	553.117
2281.86	555.074
2283.28	544.365
2284.7	562.988
2286.12	579.612
2287.54	569.569
2288.96	569.526
2290.38	571.483
2291.8	561.44
2293.22	550.063
2294.63	557.354
2296.05	569.311
2297.47	556.601
2298.89	563.225
2300.31	561.848
2301.72	577.139
2303.14	559.762
2304.56	570.386
2305.97	569.676
2307.39	576.967
2308.81	555.59
2310.22	566.214
2311.64	576.171
2313.05	558.128
2314.47	586.085
2315.88	567.375
2317.3	561.999
2318.71	568.623
2320.12	584.58
2321.54	571.87
2322.95	550.493
2324.36	568.45
2325.78	571.741
2327.19	579.698
2328.6	565.655
2330.01	575.612
2331.43	553.569
2332.84	564.859
2334.25	562.149
2335.66	569.44
2337.07	553.397
2338.48	575.354
2339.89	549.977
2341.3	562.601
2342.71	565.891
2344.12	556.515
2345.53	570.472
2346.94	562.429
2348.35	563.719
2349.76	553.676
2351.17	559.633
2352.57	562.924
2353.98	554.88
2355.39	556.171
2356.8	552.128
2358.2	544.751
2359.61	540.042
2361.02	547.332
2362.42	553.956
2363.83	566.579
2365.23	554.536
2366.64	549.827
2368.04	557.784
2369.45	561.741
2370.85	553.031
2372.26	568.321
2373.66	555.612
2375.07	538.902
2376.47	536.859
2377.87	530.149
2379.28	534.773
2380.68	537.396
2382.08	556.02
2383.49	530.644
2384.89	559.934
2386.29	545.224
2387.69	527.181
2389.09	523.805
2390.49	536.429
2391.9	539.719
2393.3	536.343
2394.7	527.633
2396.1	539.59
2397.5	533.547
2398.9	536.171
2400.29	540.128
2401.69	538.085
2403.09	540.708
2404.49	539.999
2405.89	543.956
2407.29	533.912
2408.69	529.87
2410.08	517.16
2411.48	519.117
2412.88	522.407
2414.28	540.364
2415.67	534.321
2417.07	525.611
2418.47	517.568
2419.86	548.859
2421.26	552.149
2422.65	538.773
2424.05	526.063
2425.44	536.687
2426.84	527.31
2428.23	539.934
2429.62	529.891
2431.02	547.848
2432.41	523.805
2433.81	528.429
2435.2	546.386
2436.59	533.009
2437.98	539.633
2439.38	562.923
2440.77	545.547
2442.16	540.837
2443.55	549.461
2444.94	552.084
2446.34	539.375
2447.73	527.332
2449.12	551.955
2450.51	538.579
2451.9	548.536
2453.29	549.826
2454.68	536.45
2456.07	544.407
2457.46	530.364
2458.84	536.988
2460.23	540.945
2461.62	548.235
2463.01	544.192
2464.4	548.815
2465.78	530.106
2467.17	536.729
2468.56	532.686
2469.95	548.643
2471.33	565.934
2472.72	539.891
2474.1	551.181
2475.49	543.805
2476.88	546.428
2478.26	542.385
2479.65	555.009
2481.03	538.299
2482.42	548.923
2483.8	536.88
2485.19	550.17
2486.57	536.127
2487.95	541.418
2489.34	540.708
2490.72	544.665
2492.1	546.622
2493.49	539.246
2494.87	524.536
2496.25	556.493
2497.63	541.783
2499.01	537.74
2500.39	540.364
2501.77	546.987
2503.16	547.611
2504.54	552.901
2505.92	542.858
2507.3	544.815
2508.68	534.772
2510.06	538.063
2511.44	544.02
2512.81	550.643
2514.19	544.6
2515.57	541.891
2516.95	527.848
2518.33	539.805
2519.71	529.095
2521.08	554.385
2522.46	539.675
2523.84	545.633
2525.22	524.923
2526.59	528.213
2527.97	544.17
2529.35	536.794
2530.72	544.084
2532.1	528.041
2533.47	518.665
2534.85	537.288
2536.22	525.912
2537.6	546.536
2538.97	559.826
2540.35	517.783
2541.72	525.073
2543.09	537.03
2544.47	514.987
2545.84	530.278
2547.21	519.568
2548.59	538.858
2549.96	537.482
2551.33	535.439
2552.7	513.396
2554.08	528.019
2555.45	531.31
2556.82	540.6
2558.19	537.224
2559.56	527.847
2560.93	524.471
2562.3	538.428
2563.67	525.052
2565.04	527.675
2566.41	534.966
2567.78	525.589
2569.15	519.546
2570.52	524.17
2571.89	549.46
2573.25	539.417
2574.62	522.708
2575.99	517.331
2577.36	527.288
2578.73	517.245
2580.09	535.869
2581.46	530.492
2582.83	537.783
2584.19	504.406
2585.56	533.697
2586.93	533.654
2588.29	546.277
2589.66	546.234
2591.02	540.858
2592.39	537.482
2593.75	546.105
2595.12	530.729
2596.48	531.353
2597.84	539.976
2599.21	530.6
2600.57	522.557
2601.93	525.181
2603.3	533.804
2604.66	512.428
2606.02	530.385
2607.39	535.008
2608.75	522.965
2610.11	531.589
2611.47	544.879
2612.83	522.836
2614.19	544.793
2615.55	534.084
2616.91	538.707
2618.27	537.331
2619.63	535.288
2620.99	527.912
2622.35	527.869
2623.71	539.826
2625.07	537.116
2626.43	529.74
2627.79	529.03
2629.15	514.987
2630.51	540.944
2631.86	520.901
2633.22	539.524
2634.58	543.481
2635.94	532.105
2637.29	528.729
2638.65	544.686
2640.01	543.309
2641.36	544.6
2642.72	538.557
2644.08	535.18
2645.43	531.804
2646.79	527.094
2648.14	527.718
2649.49	528.342
2650.85	528.965
2652.2	534.255
2653.56	533.546
2654.91	540.836
2656.26	539.46
2657.62	551.417
2658.97	542.707
2660.32	557.998
2661.68	533.288
2663.03	520.578
2664.38	530.535
2665.73	517.159
2667.09	533.116
2668.44	536.406
2669.79	533.03
2671.14	524.32
2672.49	532.277
2673.84	540.901
2675.19	543.524
2676.54	527.481
2677.89	539.438
2679.24	534.062
2680.59	538.686
2681.94	527.976
2683.29	530.6
2684.63	545.223
2685.98	551.18
2687.33	511.804
2688.68	529.094
2690.03	521.051
2691.37	541.008
2692.72	528.298
2694.07	528.255
2695.41	537.546
2696.76	535.503
2698.11	534.793
2699.45	513.417
2700.8	515.374
2702.14	521.997
2703.49	527.954
2704.83	531.245
2706.18	525.868
2707.52	541.159
2708.87	517.782
2710.21	523.739
2711.55	523.03
2712.9	511.653
2714.24	538.277
2715.58	512.234
2716.93	525.524
2718.27	532.148
2719.61	526.771
2720.95	534.062
2722.3	531.352
2723.64	525.976
2724.98	527.266
2726.32	525.223
2727.66	527.18
2729	529.137
2730.34	518.427
2731.68	523.051
2733.02	520.341
2734.36	529.632
2735.7	511.589
2737.04	508.212
2738.38	528.169
2739.72	531.46
2741.06	520.083
2742.39	519.373
2743.73	511.33
2745.07	508.621
2746.41	515.911
2747.74	519.201
2749.08	519.158
2750.42	527.115
2751.75	526.406
2753.09	517.029
2754.43	511.653
2755.76	539.61
2757.1	514.234
2758.43	519.524
2759.77	506.814
2761.1	518.771
2762.44	516.728
2763.77	524.019
2765.11	523.309
2766.44	502.599
2767.78	516.556
2769.11	523.18
2770.44	535.137
2771.78	531.76
2773.11	520.384
2774.44	498.341
2775.77	538.965
2777.11	514.922
2778.44	521.545
2779.77	520.169
2781.1	530.126
2782.43	518.083
2783.76	524.707
2785.09	494.664
2786.42	507.287
2787.76	504.578
2789.08	497.201
2790.41	508.492
2791.74	535.115
2793.07	511.072
2794.4	509.029
2795.73	519.653
2797.06	538.943
2798.39	510.9
2799.72	520.857
2801.04	532.814
2802.37	509.438
2803.7	526.728
2805.03	521.352
2806.35	517.975
2807.68	537.266
2809.01	515.223
2810.33	509.18
2811.66	512.47
2812.98	528.427
2814.31	513.051
2815.63	513.674
2816.96	520.965
2818.28	510.922
2819.61	513.545
2820.94	526.836
2822.26	514.793
2823.58	524.083
2824.91	522.706
2826.23	515.997
2827.55	498.62
2828.88	524.577
2830.2	511.868
2831.52	529.158
2832.84	513.782
2834.16	512.405
2835.49	518.362
2836.81	512.319
2838.13	511.61
2839.45	514.9
2840.77	505.524
2842.09	517.481
2843.41	516.104
2844.73	508.728
2846.05	504.685
2847.37	511.309
2848.69	520.599
2850.01	506.556
2851.33	503.846
2852.65	519.136
2853.97	532.427
2855.29	503.05
2856.6	518.341
2857.92	518.964
2859.24	498.255
2860.56	519.545
2861.87	514.169
2863.19	522.126
2864.51	514.749
2865.82	501.373
2867.14	510.663
2868.46	496.62
2869.77	521.911
2871.09	508.534
2872.4	523.825
2873.72	535.781
2875.03	511.072
2876.35	507.029
2877.66	510.319
2878.98	509.609
2880.29	520.9
2881.6	499.523
2882.92	508.814
2884.23	516.104
2885.54	518.061
2886.86	516.685
2888.17	516.642
2889.48	533.265
2890.79	527.222
2892.1	503.179
2893.42	525.136
2894.73	513.093
2896.04	514.384
2897.35	512.341
2898.66	505.631
2899.97	514.921
2901.28	516.878
2902.59	508.169
2903.9	511.459
2905.21	512.082
2906.52	512.039
2907.83	513.996
2909.14	531.287
2910.45	524.577
2911.76	525.867
2913.06	523.824
2914.37	511.115
2915.68	521.072
2916.99	501.029
2918.29	522.224
2919.6	506.922
2920.91	514.178
2922.21	504.263
2923.52	514.225
2924.83	511.565
2926.13	494.47
2927.44	512.358
2928.74	505.959
2930.05	506.934
2931.35	513.05
2932.66	521.3
2933.96	521.983
2935.27	498.827
2936.57	513.082
2937.88	511.14
2939.18	507.22
2940.48	506.743
2941.79	511.162
2943.09	502.868
2944.39	516.436
2945.69	514.553
2946.99	512.779
2948.3	508.322
2949.6	497.766
2950.9	507.589
2952.2	518.793
2953.5	508.958
2954.8	510.924
2956.1	515.716
2957.4	504.209
2958.7	493.057
2960	506.748
2961.3	517.927
2962.6	508.775
2963.9	514.027
2965.2	502.042
2966.5	494.845
2967.8	501.366
2969.1	500.856
2970.4	502.431
2971.69	500.428
2972.99	501.927
2974.29	499.438
2975.59	503.984
2976.88	493.429
2978.18	498.03
2979.48	491.502
2980.77	489.532
2982.07	488.741
2983.36	493.142
2984.66	498.068
2985.95	501.815
2987.25	490.093
2988.55	508.807
2989.84	490.286
2991.13	490.276
2992.43	493.82
2993.72	502.574
2995.02	497.798
2996.31	482.455
2997.6	489.319
2998.9	497.042
3000.19	504.282
3001.48	485.085
3002.77	487.235
3004.07	496.129
3005.36	486.83
3006.65	489.912
3007.94	486.641
3009.23	500.427
3010.53	497.105
3011.82	497.682
3013.11	485.719
3014.4	495.754
3015.69	494.537
3016.98	498.109
3018.27	505.777
3019.56	489.238
3020.85	490.228
3022.13	482.594
3023.42	496.618
3024.71	487.614
3026	501.332
3027.29	498.751
3028.58	490.244
3029.86	493.068
3031.15	482.363
3032.44	479.726
3033.73	481.154
3035.01	496.689
3036.3	497.297
3037.58	488.832
3038.87	491.291
3040.16	491.838
3041.44	489.002
3042.73	487.323
3044.01	498.644
3045.3	489.08
3046.58	501.791
3047.87	495.445
3048.04	494.158
3049.33	493.483
3050.62	492.809
3051.91	496.135
3053.2	497.461
3054.49	494.12
3055.77	476.113
3057.06	480.772
3058.35	508.765
3059.64	488.757
3060.93	488.083
3062.22	499.409
3063.51	487.402
3064.79	479.394
3066.08	485.387
3067.37	498.713
3068.66	492.039
3069.94	489.365
3071.23	478.024
3072.52	482.016
3073.8	503.342
3075.09	488.002
3076.37	480.661
3077.66	491.32
3078.94	473.313
3080.23	483.305
3081.51	467.298
3082.8	485.957
3084.08	487.283
3085.37	475.276
3086.65	484.601
3087.94	485.927
3089.22	475.253
3090.5	489.912
3091.78	485.905
3093.07	491.231
3094.35	483.89
3095.63	495.883
3096.91	475.209
3098.2	477.868
3099.48	480.527
3100.76	488.52
3102.04	501.846
3103.32	489.838
3104.6	495.164
3105.88	485.823
3107.16	494.483
3108.44	477.809
3109.72	481.801
3111	488.46
3112.28	497.12
3113.56	474.445
3114.84	494.438
3116.12	494.431
3117.4	491.757
3118.68	483.749
3119.96	493.075
3121.23	490.401
3122.51	486.394
3123.79	477.053
3125.07	480.379
3126.34	499.705
3127.62	468.364
3128.9	487.023
3130.18	485.016
3131.45	495.008
3132.73	491.667
3134	498.327
3135.28	489.653
3136.55	488.979
3137.83	478.971
3139.1	489.63
3140.38	484.956
3141.65	498.282
3142.93	498.275
3144.2	491.601
3145.47	482.927
3146.75	491.586
3148.02	486.245
3149.29	494.238
3150.57	495.564
3151.84	482.889
3153.11	495.549
3154.39	485.541
3155.66	494.201
3156.93	495.526
3158.2	481.519
3159.47	485.512
3160.74	478.171
3162.01	493.497
3163.28	475.489
3164.56	499.482
3165.83	487.474
3167.1	484.8
3168.37	492.126
3169.64	474.119
3170.91	500.778
3172.18	484.104
3173.44	486.097
3174.71	489.422
3175.98	508.082
3177.25	488.741
3178.52	482.734
3179.79	492.726
3181.05	482.719
3182.32	508.045
3183.59	489.37
3184.86	490.696
3186.12	500.689
3187.39	498.015
3188.66	493.341
3189.92	488
3191.19	484.659
3192.45	498.652
3193.72	483.978
3194.98	481.304
3196.25	471.296
3197.51	495.956
3198.78	487.281
3200.04	483.274
3201.31	503.933
3202.57	482.592
3203.84	480.585
3205.1	471.244
3206.36	491.904
3207.63	479.896
3208.89	477.889
3210.15	489.215
3211.41	502.54
3212.68	507.2
3213.94	489.192
3215.2	483.185
3216.46	477.177
3217.72	480.503
3218.99	484.496
3220.25	475.822
3221.51	484.481
3222.77	479.807
3224.03	485.133
3225.29	481.792
3226.55	489.118
3227.81	487.777
3229.07	475.77
3230.33	483.096
3231.59	488.422
3232.84	481.081
3234.1	479.074
3235.36	483.066
3236.62	486.392
3237.88	475.051
3239.13	480.377
3240.39	489.703
3241.65	473.029
3242.91	471.022
3244.16	469.014
3245.42	474.34
3246.68	480.333
3247.93	470.992
3249.19	478.984
3250.45	485.644
3251.7	478.303
3252.96	485.629
3254.21	481.621
3255.47	470.947
3256.72	482.273
3257.98	484.932
3259.23	465.592
3260.49	489.584
3261.74	461.577
3262.99	482.903
3264.25	455.562
3265.5	486.888
3266.75	476.214
3268	482.873
3269.26	478.199
3270.51	471.525
3271.76	474.851
3273.02	490.843
3274.27	468.836
3275.52	478.829
3276.77	468.821
3278.02	480.814
3279.27	479.473
3280.52	479.465
3281.77	477.458
3283.02	466.784
3284.27	473.443
3285.52	471.436
3286.77	480.095
3288.02	468.088
3289.27	478.747
3290.52	466.073
3291.77	487.399
3293.02	482.725
3294.27	472.051
3295.51	478.043
3296.76	475.369
3298.01	486.695
3299.26	482.021
3300.5	472.013
3301.75	476.673
3303	474.665
3304.24	473.991
3305.49	473.317
3306.74	492.643
3307.99	465.302
3309.23	471.961
3310.48	465.287
3311.72	482.613
3312.97	472.606
3314.21	475.265
3315.46	479.258
3316.7	477.25
3317.94	476.576
3319.19	483.902
3320.43	481.228
3321.68	478.554
3322.92	485.88
3324.16	475.872
3325.41	483.198
3326.65	473.191
3327.89	487.85
3329.13	487.176
3330.38	480.502
3331.62	471.161
3332.86	467.82
3334.1	483.813
3335.34	468.472
3336.58	478.465
3337.83	476.457
3339.07	466.45
3340.31	481.776
3341.55	477.768
3342.79	453.094
3344.03	465.087
3345.27	459.746
3346.51	455.739
3347.75	472.398
3348.99	457.724
3350.22	458.383
3351.46	467.709
3352.7	470.368
3353.94	471.027
3355.18	467.687
3356.42	464.346
3357.65	477.005
3358.89	462.331
3360.13	470.99
3361.36	474.316
3362.6	474.309
3363.84	477.635
3365.07	454.294
3366.31	463.62
3367.55	468.946
3368.78	441.605
3370.02	463.598
3371.25	454.924
3372.49	470.249
3373.72	475.575
3374.96	459.568
3376.19	456.227
3377.43	463.553
3378.66	456.879
3379.89	450.205
3381.13	460.197
3382.36	450.857
3383.59	456.849
3384.83	458.175
3386.06	450.834
3387.29	450.16
3388.52	471.486
3389.76	449.479
3390.99	466.805
3392.22	459.464
3393.45	453.457
3394.68	454.782
3395.91	443.442
3397.15	458.768
3398.38	465.427
3399.61	456.086
3400.84	460.745
3402.07	447.405
3403.3	451.397
3404.53	452.723
3405.76	464.049
3406.99	450.042
3408.21	450.701
3409.44	456.027
3410.67	462.019
3411.9	460.012
3413.13	460.671
3414.36	438.664
3415.58	455.99
3416.81	449.315
3418.04	460.641
3419.27	460.634
3420.49	463.96
3421.72	460.619
3422.95	465.945
3424.17	459.271
3425.4	467.264
3426.62	453.256
3427.85	447.915
3429.08	475.241
3430.3	458.567
3431.53	464.56
3432.75	447.219
3433.98	457.212
3435.2	469.871
3436.42	467.197
3437.65	442.523
3438.87	459.182
3440.1	457.174
3441.32	460.5
3442.54	467.826
3443.76	461.819
3444.99	459.145
3446.21	451.804
3447.43	463.797
3448.66	454.456
3449.88	447.115
3451.1	469.108
3452.32	439.767
3453.54	465.093
3454.76	457.752
3455.98	466.411
3457.21	458.404
3458.43	456.396
3459.65	455.722
3460.87	455.048
3462.09	456.374
3463.3	455.7
3464.53	450.359
3465.74	436.352
3466.96	446.344
3468.18	447.67
3469.4	440.996
3470.62	450.322
3471.84	459.648
3473.06	446.974
3474.27	462.3
3475.49	448.959
3476.71	466.285
3477.93	450.944
3479.14	456.937
3480.36	442.263
3481.58	456.255
3482.79	457.581
3484.01	444.24
3485.22	449.566
3486.44	462.892
3487.66	442.885
3488.87	446.877
3490.09	441.537
3491.3	435.529
3492.52	438.188
3493.73	450.181
3494.95	454.84
3496.16	450.166
3497.37	448.159
3498.59	455.485
3499.8	434.811
3501.01	434.137
3502.23	436.129
3503.44	440.788
3504.65	427.448
3505.87	442.773
3507.08	429.433
3508.29	422.759
3509.5	414.751
3510.71	445.41
3511.93	434.736
3513.14	436.062
3514.35	447.388
3515.56	432.714
3516.77	433.373
3517.98	439.366
3519.19	420.025
3520.4	423.351
3521.61	416.01
3522.82	414.67
3524.03	413.329
3525.24	418.655
3526.45	433.314
3527.66	409.973
3528.86	418.632
3530.07	408.625
3531.28	423.951
3532.49	417.943
3533.7	413.269
3534.9	413.262
3536.11	421.921
3537.32	409.914
3538.53	407.906
3539.73	385.899
3540.94	413.892
3542.15	423.217
3543.35	405.21
3544.56	410.536
3545.76	411.195
3546.97	427.854
3548.18	414.514
3549.38	407.173
3550.59	407.832
3551.79	399.825
3553	418.484
3554.2	415.143
3555.4	403.802
3556.61	413.128
3557.81	403.788
3559.02	401.78
3560.22	417.773
3561.42	417.765
3562.62	401.091
3563.83	399.084
3565.03	401.076
3566.23	407.736
3567.44	417.728
3568.64	420.387
3569.84	407.713
3571.04	411.039
3572.24	418.365
3573.44	419.691
3574.64	396.35
3575.84	392.343
3577.04	404.335
3578.25	418.328
3579.45	388.321
3580.65	416.98
3581.84	410.972
3583.04	384.965
3584.24	400.958
3585.44	398.95
3586.64	402.943
3587.84	409.602
3589.04	408.261
3590.24	402.254
3591.44	407.58
3592.63	397.572
3593.83	413.565
3595.03	404.224
3596.23	404.217
3597.42	411.543
3598.62	406.868
3599.82	398.861
3601.01	400.187
3602.21	396.18
3603.41	412.839
3604.6	394.165
3605.8	406.157
3606.99	400.15
3608.19	395.476
3609.38	413.468
3610.58	404.128
3611.77	404.787
3612.97	406.113
3614.16	404.105
3615.36	400.098
3616.55	398.757
3617.74	400.083
3618.94	412.742
3620.13	411.401
3621.32	406.061
3622.52	397.387
3623.71	378.713
3624.9	386.705
3626.09	395.364
3627.29	388.69
3628.48	409.35
3629.67	393.342
3630.86	406.668
3632.05	397.994
3633.24	403.987
3634.44	391.312
3635.63	399.972
3636.82	392.631
3638.01	386.623
3639.2	385.949
3640.39	383.275
3641.58	386.601
3642.77	400.594
3643.95	395.253
3645.15	382.579
3646.33	380.572
3647.52	382.564
3648.71	386.557
3649.9	377.883
3651.09	390.542
3652.28	385.201
3653.46	383.194
3654.65	386.52
3655.84	375.845
3657.03	371.838
3658.21	387.164
3659.4	389.823
3660.58	377.816
3661.77	376.475
3662.96	393.801
3664.14	381.793
3665.33	376.453
3666.52	364.445
3667.7	379.771
3668.89	367.764
3670.07	374.423
3671.25	379.082
3672.44	362.408
3673.62	367.067
3674.81	369.06
3675.99	389.719
3677.18	367.712
3678.36	366.371
3679.54	376.364
3680.73	370.356
3681.91	367.015
3683.09	369.675
3684.27	387.667
3685.46	360.993
3686.64	372.986
3687.82	352.312
3689	368.304
3690.19	366.297
3691.37	361.623
3692.55	363.615
3693.73	354.275
3694.91	342.267
3696.09	381.593
3697.27	366.252
3698.45	363.578
3699.63	352.237
3700.81	360.897
3701.99	375.556
3703.17	368.882
3704.35	357.541
3705.53	352.2
3706.71	356.193
3707.89	367.519
3709.06	369.511
3710.24	362.837
3711.42	359.496
3712.6	378.156
3713.78	362.815
3714.95	351.474
3716.13	364.133
3717.31	368.793
3718.48	365.452
3719.66	357.445
3720.84	371.437
3722.01	368.763
3723.19	354.089
3724.37	368.082
3725.54	358.741
3726.72	348.733
3727.89	362.059
3729.07	364.718
3730.24	356.711
3731.42	366.704
3732.59	381.363
3733.77	360.689
3734.94	375.348
3736.12	345.341
3737.29	358
3738.46	359.326
3739.64	359.318
3740.81	370.644
3741.98	347.303
3743.15	365.296
3744.33	368.622
3745.5	365.948
3746.67	346.607
3747.84	356.6
3749.02	357.926
3750.19	358.585
3751.36	358.577
3752.53	362.57
3753.7	379.896
3754.87	352.555
3756.04	366.548
3757.21	359.207
3758.38	362.533
3759.55	359.859
3760.72	360.518
3761.89	375.177
3763.06	373.17
3764.23	369.829
3765.4	371.822
3766.57	371.814
3767.74	364.473
3768.91	356.466
3770.08	349.792
3771.24	362.451
3772.41	368.444
3773.58	360.436
3774.75	365.762
3775.91	362.422
3777.08	359.081
3778.25	361.073
3779.41	375.733
3780.58	356.392
3781.75	347.718
3782.91	351.71
3784.08	365.703
3785.25	366.362
3786.41	356.355
3787.58	349.014
3788.74	374.34
3789.91	359.666
3791.07	348.992
3792.24	351.651
3793.4	357.643
3794.57	348.969
3795.73	362.962
3796.89	348.288
3798.06	352.28
3799.22	362.94
3800.38	352.932
3801.55	353.591
3802.71	364.251
3803.87	352.91
3805.03	344.236
3806.2	356.895
3807.36	364.221
3808.52	358.88
3809.68	349.54
3810.84	350.865
3812.01	342.191
3813.17	343.517
3814.33	351.51
3815.49	351.502
3816.65	350.828
3817.81	356.154
3818.97	357.48
3820.13	338.806
3821.29	340.799
3822.45	344.125
3823.61	330.784
3824.77	351.443
3825.93	339.436
3827.09	343.428
3828.24	350.754
3829.4	341.413
3830.56	342.739
3831.72	342.732
3832.88	356.058
3834.04	350.717
3835.19	351.376
3836.35	334.035
3837.51	349.361
3838.66	344.021
3839.82	346.68
3840.98	340.672
3842.13	348.665
3843.29	341.991
3844.45	345.983
3845.6	328.643
3846.76	339.302
3847.91	333.295
3849.07	333.287
3850.22	354.613
3851.38	352.606
3852.53	342.598
3853.69	358.591
3854.84	330.583
3856	337.909
3857.15	353.902
3858.3	347.894
3859.46	343.22
3860.61	333.213
3861.76	340.539
3862.92	350.531
3864.07	341.857
3865.22	345.183
3866.37	349.176
3867.53	332.502
3868.68	350.494
3869.83	327.82
3870.98	328.479
3872.13	341.805
3873.28	334.465
3874.43	352.457
3875.59	342.45
3876.74	348.442
3877.89	342.435
3879.04	340.427
3880.19	343.753
3881.34	337.746
3882.49	326.405
3883.64	340.398
3884.79	334.39
3885.93	358.383
3887.08	341.709
3888.23	340.368
3889.38	341.694
3890.53	344.353
3891.68	338.346
3892.83	341.005
3893.97	338.998
3895.12	343.657
3896.27	335.649
3897.41	339.642
3898.56	349.635
3899.71	349.627
3900.86	342.953
3902	341.612
3903.15	338.938
3904.29	330.931
3905.44	346.257
3906.59	342.916
3907.73	348.242
3908.88	357.568
3910.02	346.227
3911.17	335.553
3912.31	338.212
3913.46	347.538
3914.6	353.531
3915.75	352.856
3916.89	330.849
3918.03	355.508
3919.18	335.501
3920.32	344.827
3921.46	344.153
3922.61	341.479
3923.75	359.471
3924.89	351.464
3926.03	349.456
3927.18	351.449
3928.32	338.108
3929.46	348.101
3930.6	335.427
3931.74	352.086
3932.89	345.412
3934.03	351.404
3935.17	348.064
3936.31	348.056
3937.45	352.715
3938.59	343.375
3939.73	328.701
3940.87	344.693
3942.01	336.686
3943.15	334.678
3944.29	350.004
3945.43	343.997
3946.57	336.656
3947.71	337.982
3948.84	337.308
3949.98	331.967
3951.12	340.626
3952.26	335.952
3953.4	336.611
3954.54	337.271
3955.67	339.263
3956.81	330.589
3957.95	330.582
3959.09	345.241
3960.22	354.567
3961.36	339.893
3962.5	321.219
3963.63	324.545
3964.77	339.204
3965.9	339.863
3967.04	329.856
3968.18	329.182
3969.31	330.508
3970.45	323.167
3971.58	331.826
3972.72	327.819
3973.85	338.478
3974.99	333.137
3976.12	322.463
3977.25	329.789
3978.39	330.448
3979.52	335.107
3980.65	339.767
3981.79	335.093
3982.92	342.418
3984.05	333.078
3985.19	334.404
3986.32	319.063
3987.45	340.389
3988.58	316.381
3989.72	325.707
3990.85	333.033
3991.98	337.026
3993.11	329.018
3994.24	332.344
3995.37	330.337
3996.5	330.329
3997.64	325.655
3998.77	328.981
3999.9	320.974
