#Acq. time (s)=	15
#Accumulations=	4
#Range (cm-¹)=	50...4000
#Windows=	3
#Autofocus=	Off
#AutoExposure=	Off
#Spike filter=	Multiple accum.
#Delay time (s)=	0
#Binning=	1
#Readout mode=	Signal
#DeNoise=	Off
#ICS correction=	Off
#Dark correction=	Off
#Inst. Process=	Off
#Instrument=	LabRAM HR Evol
#Detector=	Syncerity OE
#Objective=	x100_VIS
#Grating=	600 (500nm)
#ND Filter=	5%
#Laser=	532nm_Edge
#Hole=	100.021
#Range=	Visible
#Project=	Omar
#Sample=	120523
#Site=	ap
#Title=	mz
#Remark=	5 laser intensity
#Date=	12.05.2023 17:13
#Acquired=	12.05.2023 17:13:03
51.0297	20.6667
52.8754	30.5652
54.7185	31.7971
56.5635	34.3624
58.406	39.5943
60.2502	58.1595
62.0919	60.7248
63.9355	85.29
65.7765	112.522
67.6193	131.754
69.4595	153.652
71.3016	190.218
73.1412	235.45
74.9825	257.348
76.8214	280.58
78.662	311.145
80.5001	327.044
82.34	339.609
84.1774	369.508
86.0166	394.073
87.8532	388.638
89.6917	399.203
91.5276	413.769
93.3632	413.667
95.2006	410.899
97.0355	404.131
98.8721	413.363
100.706	419.928
102.54	407.827
104.376	419.725
106.209	421.624
108.041	422.856
109.876	436.088
111.708	431.986
113.542	425.218
115.373	437.783
117.204	439.015
119.036	452.247
120.867	443.479
122.697	446.044
124.526	439.276
126.357	437.841
128.186	439.74
130.014	451.639
131.845	434.871
133.672	452.102
135.5	446.001
137.327	443.233
139.155	452.465
140.982	445.03
142.807	452.929
144.633	456.161
146.46	446.059
148.285	445.291
150.11	446.523
151.934	452.422
153.757	460.987
155.583	453.552
157.406	458.784
159.229	467.349
161.051	443.248
162.873	454.48
164.697	462.378
166.518	455.61
168.339	452.842
170.159	464.074
171.98	463.973
173.799	454.538
175.619	461.103
177.44	443.002
179.259	456.233
181.077	466.132
182.895	464.697
184.713	471.929
186.53	467.828
188.347	471.726
190.164	475.625
191.98	462.19
193.796	484.755
195.612	479.987
197.427	451.886
199.242	470.451
201.059	468.35
202.873	474.915
204.686	478.147
206.5	476.712
208.313	476.611
210.126	473.176
211.938	476.408
213.75	468.973
215.562	474.205
217.373	482.77
219.184	468.669
220.993	467.234
222.803	475.133
224.613	471.698
226.422	463.596
228.232	475.495
230.04	467.394
231.849	468.625
233.657	473.857
235.465	468.423
237.272	474.988
239.079	486.22
240.886	484.118
242.693	472.017
244.497	476.582
246.302	471.147
248.108	478.379
249.913	491.611
251.717	480.843
253.521	488.075
255.325	472.64
257.127	493.872
258.93	481.104
260.733	497.003
262.535	473.568
264.338	484.8
266.137	487.365
267.939	475.264
269.74	485.162
271.541	484.394
273.341	486.959
275.139	484.858
276.939	476.756
278.738	482.655
280.537	474.554
282.334	472.452
284.132	493.017
285.93	479.583
287.728	484.815
289.523	474.713
291.32	471.945
293.117	477.844
294.911	485.076
296.707	502.307
298.502	498.206
300.295	493.438
302.09	486.67
303.885	482.568
305.677	501.134
307.47	491.699
309.264	499.597
311.055	496.163
312.848	492.061
314.64	504.626
316.43	489.192
318.222	501.09
320.011	497.656
321.802	497.554
323.593	489.453
325.381	497.351
327.171	497.916
328.958	491.815
330.748	504.38
332.535	502.279
334.323	484.844
336.109	495.409
337.897	499.975
339.685	505.206
341.47	484.438
343.257	494.337
345.041	499.569
346.827	496.134
348.611	502.699
350.397	491.931
352.18	499.83
353.962	499.062
355.747	498.294
357.529	501.526
359.312	492.757
361.094	499.989
362.877	514.555
364.658	507.786
366.44	491.018
368.22	489.584
369.999	508.149
371.781	496.714
373.56	509.946
375.34	505.845
377.119	507.743
378.896	512.308
380.676	507.54
382.453	503.439
384.23	504.671
386.009	512.569
387.785	496.468
389.561	507.033
391.338	495.598
393.113	518.83
394.888	518.062
396.665	523.294
398.439	505.859
400.213	511.758
401.988	502.323
403.761	512.222
405.534	514.787
407.306	504.686
409.081	491.918
410.852	508.483
412.624	502.381
414.395	526.28
416.167	512.845
417.938	516.077
419.708	513.976
421.477	504.541
423.249	521.773
425.018	497.671
426.786	508.237
428.555	523.469
430.323	518.034
432.092	512.599
433.86	503.164
435.627	507.729
437.393	518.295
439.16	496.193
440.926	505.425
442.691	521.99
444.458	514.556
446.223	519.121
447.988	512.353
449.752	517.585
451.516	518.15
453.28	504.049
455.043	524.614
456.806	517.179
458.568	531.078
460.33	516.976
462.092	527.541
463.854	535.44
465.615	515.339
467.378	517.237
469.138	518.469
470.899	542.368
472.658	540.266
474.418	529.498
476.177	522.063
477.936	519.295
479.694	536.527
481.452	545.759
483.21	528.991
484.966	530.223
486.723	519.455
488.48	532.02
490.236	541.919
491.992	525.15
493.748	522.382
495.503	520.948
497.258	535.513
499.013	530.078
500.768	525.31
502.522	537.209
504.276	520.44
506.029	547.006
507.78	528.904
509.533	542.136
511.285	539.368
513.037	524.6
514.789	529.832
516.54	532.397
518.289	530.296
520.04	546.194
521.791	528.093
523.541	551.325
525.29	546.557
527.04	537.122
528.787	531.687
530.536	542.919
532.284	526.818
534.032	532.05
535.778	547.281
537.525	545.847
539.272	539.079
541.019	538.977
542.763	527.542
544.509	545.441
546.255	540.006
548	525.905
549.743	554.47
551.488	537.702
553.232	550.934
554.974	554.832
556.718	550.064
558.462	571.296
560.203	547.862
561.945	543.76
563.688	554.325
565.428	553.557
567.169	544.789
568.911	531.354
570.65	548.586
572.391	550.485
574.129	536.383
575.869	536.949
577.609	542.847
579.346	556.746
581.085	553.311
582.822	551.21
584.56	556.442
586.296	543.007
588.034	552.905
589.771	542.137
591.506	546.036
593.243	543.934
594.978	553.833
596.714	541.732
598.447	556.297
600.183	543.529
601.916	533.427
603.651	530.659
605.383	538.558
607.117	547.79
608.849	551.688
610.582	545.587
612.313	534.152
614.044	553.384
615.776	570.616
617.507	537.181
619.238	553.746
620.968	544.312
622.699	545.544
624.428	554.109
626.156	554.007
627.886	552.573
629.614	561.804
631.342	550.37
633.071	572.935
634.797	573.5
636.526	574.732
638.252	555.964
639.978	573.863
641.705	567.761
643.431	571.66
645.155	570.892
646.88	560.123
648.606	593.355
650.33	571.254
652.053	559.819
653.779	570.384
655.502	569.616
657.224	560.182
658.946	562.747
660.67	573.312
662.392	584.544
664.113	576.443
665.834	571.008
667.556	577.573
669.277	574.138
670.997	568.703
672.716	561.935
674.435	569.167
676.156	567.066
677.875	574.298
679.593	566.863
681.311	559.428
683.029	565.327
684.746	559.225
686.465	582.457
688.182	576.356
689.898	562.921
691.614	563.486
693.33	594.052
695.045	581.284
696.76	574.515
698.475	585.747
700.189	557.646
701.904	561.545
703.619	564.776
705.333	568.675
707.046	572.574
708.759	569.139
710.471	576.371
712.183	567.603
713.895	573.501
715.606	588.733
717.317	579.965
719.028	590.53
720.739	589.095
722.449	590.327
724.159	576.226
725.868	586.125
727.578	580.69
729.286	571.255
730.995	601.154
732.703	592.385
734.409	574.284
736.117	590.849
737.824	590.081
739.531	587.98
741.237	613.878
742.944	587.777
744.65	591.675
746.355	592.241
748.061	588.139
749.766	576.705
751.468	567.27
753.173	591.168
754.877	615.067
756.581	585.632
758.284	593.531
759.987	576.096
761.688	583.328
763.39	591.893
765.092	580.458
766.794	595.024
768.496	573.589
770.195	580.154
771.896	587.386
773.596	578.618
775.296	584.516
776.994	585.748
778.694	586.314
780.393	601.546
782.092	594.777
783.788	584.676
785.487	595.908
787.185	594.473
788.882	597.038
790.578	592.27
792.274	586.836
793.971	569.401
795.666	580.633
797.362	598.531
799.057	593.096
800.751	600.995
802.446	592.894
804.138	604.792
805.833	584.691
807.527	602.589
809.219	597.821
810.912	605.053
812.605	597.618
814.296	596.184
815.989	606.082
817.679	577.314
819.371	585.213
821.06	601.778
822.752	598.343
824.441	598.908
826.131	614.807
827.822	601.372
829.51	618.604
831.199	615.169
832.887	613.735
834.576	610.967
836.262	604.198
837.951	602.097
839.637	615.996
841.323	611.228
843.01	611.126
844.695	599.025
846.382	625.59
848.066	605.488
849.753	612.054
851.436	625.952
853.122	601.184
854.805	608.416
856.488	624.981
858.173	621.547
859.855	618.112
861.539	614.677
863.221	639.242
864.902	637.808
866.585	632.373
868.266	624.938
869.946	627.503
871.628	632.735
873.308	637.967
874.987	633.199
876.668	633.098
878.347	623.663
880.026	639.561
881.704	628.127
883.384	610.692
885.061	613.257
886.739	619.156
888.418	601.054
890.094	625.62
891.771	620.185
893.447	605.417
895.122	611.315
896.799	608.547
898.475	607.779
900.149	618.344
901.824	617.576
903.498	614.808
905.174	614.04
906.847	609.272
908.52	608.504
910.193	611.736
911.866	614.968
913.538	626.199
915.212	616.765
916.883	613.33
918.555	623.895
920.226	631.127
921.896	615.026
923.567	610.258
925.237	620.823
926.907	612.721
928.576	625.953
930.245	615.852
931.914	621.75
933.584	634.316
935.253	623.548
936.92	617.446
938.588	626.011
940.255	620.577
941.922	615.809
943.589	623.041
945.255	634.272
946.921	636.171
948.587	645.403
950.252	672.635
951.917	631.867
953.582	653.765
955.244	637.664
956.909	662.229
958.572	659.461
960.236	647.36
961.899	669.925
963.562	656.49
965.225	673.722
966.887	669.621
968.549	665.519
970.211	656.084
971.872	639.316
973.531	651.215
975.192	647.113
976.852	623.012
978.512	640.911
980.172	641.476
981.831	630.041
983.489	659.273
985.148	638.505
986.806	632.403
988.464	666.302
990.122	648.867
991.778	646.099
993.435	664.664
995.092	658.563
996.749	661.795
998.404	671.027
1000.06	698.925
1001.72	713.491
1003.37	724.056
1005.02	740.621
1006.68	747.186
1008.33	739.085
1009.99	740.317
1011.64	734.882
1013.29	717.447
1014.95	702.012
1016.6	681.911
1018.25	675.81
1019.9	680.375
1021.55	682.94
1023.2	660.839
1024.85	672.737
1026.51	659.969
1028.16	646.534
1029.81	667.766
1031.46	648.331
1033.1	643.563
1034.75	646.795
1036.4	632.694
1038.05	649.259
1039.7	643.158
1041.34	649.723
1042.99	656.955
1044.64	653.52
1046.29	650.085
1047.93	649.984
1049.58	645.883
1051.22	637.114
1052.87	653.013
1054.51	634.245
1056.16	643.477
1057.8	644.709
1059.45	660.607
1061.09	650.506
1062.73	649.738
1064.38	647.636
1066.02	656.202
1067.66	645.434
1069.3	677.332
1070.95	651.897
1072.59	649.796
1074.23	651.028
1075.87	654.926
1077.51	652.825
1079.15	660.724
1080.79	646.622
1082.43	639.187
1084.07	639.086
1085.71	638.318
1087.35	662.883
1088.99	670.115
1090.62	650.013
1092.26	649.912
1093.9	665.144
1095.53	657.043
1097.17	642.274
1098.81	638.173
1100.44	638.738
1102.08	653.97
1103.71	651.202
1105.35	655.101
1106.99	660.333
1108.62	658.231
1110.25	647.463
1111.89	666.028
1113.52	641.927
1115.15	645.825
1116.79	667.057
1118.42	659.623
1120.05	675.521
1121.68	679.42
1123.31	650.652
1124.95	685.217
1126.58	668.449
1128.21	688.347
1129.84	679.579
1131.47	700.144
1133.1	684.043
1134.73	703.942
1136.36	695.174
1137.98	725.072
1139.61	704.971
1141.24	728.869
1142.87	732.768
1144.5	732.666
1146.12	772.565
1147.75	778.464
1149.38	789.029
1151	857.594
1152.63	878.826
1154.26	933.391
1155.88	988.623
1157.51	1016.52
1159.13	1025.75
1160.76	990.986
1162.38	957.551
1164	892.116
1165.63	820.681
1167.25	799.913
1168.87	764.478
1170.49	743.044
1172.12	726.276
1173.74	734.174
1175.36	736.739
1176.98	750.638
1178.6	740.536
1180.22	739.768
1181.84	733
1183.46	748.899
1185.08	774.797
1186.7	753.363
1188.32	773.928
1189.94	771.16
1191.56	785.725
1193.18	779.624
1194.79	769.522
1196.41	722.087
1198.03	737.986
1199.64	743.885
1201.26	728.45
1202.88	724.348
1204.49	730.247
1206.11	719.479
1207.72	694.044
1209.34	707.943
1210.95	710.508
1212.57	723.073
1214.18	737.638
1215.8	703.537
1217.41	714.769
1219.02	696.001
1220.64	691.233
1222.25	675.798
1223.86	665.697
1225.47	665.595
1227.08	643.494
1228.69	652.726
1230.3	667.291
1231.92	652.523
1233.53	677.088
1235.14	646.987
1236.75	657.552
1238.35	645.45
1239.96	660.682
1241.57	667.914
1243.18	639.146
1244.79	656.378
1246.4	646.277
1248.01	645.508
1249.61	641.407
1251.22	663.306
1252.82	687.871
1254.43	672.436
1256.04	662.335
1257.64	678.233
1259.25	662.798
1260.85	672.03
1262.46	674.596
1264.06	669.161
1265.67	665.726
1267.27	671.625
1268.87	680.19
1270.48	670.089
1272.08	669.987
1273.68	679.886
1275.28	658.451
1276.89	692.349
1278.49	663.581
1280.09	665.48
1281.69	678.712
1283.29	664.61
1284.89	679.842
1286.49	659.074
1288.09	664.64
1289.69	670.205
1291.29	678.77
1292.89	668.669
1294.49	672.567
1296.09	686.466
1297.68	679.031
1299.28	668.93
1300.88	672.161
1302.48	678.06
1304.07	679.959
1305.67	667.857
1307.26	665.756
1308.86	674.321
1310.46	668.886
1312.05	662.785
1313.65	679.35
1315.24	671.915
1316.84	667.147
1318.43	660.379
1320.02	674.278
1321.62	666.843
1323.21	676.075
1324.8	663.307
1326.39	661.205
1327.99	661.104
1329.58	671.669
1331.17	646.234
1332.76	659.466
1334.35	652.698
1335.94	657.263
1337.53	662.495
1339.12	656.394
1340.71	664.959
1342.3	658.858
1343.89	674.09
1345.48	658.655
1347.07	651.22
1348.65	662.452
1350.24	635.017
1351.83	666.916
1353.42	674.814
1355	679.38
1356.59	663.278
1358.18	659.177
1359.76	656.409
1361.35	658.307
1362.93	648.872
1364.52	646.771
1366.1	657.336
1367.69	658.568
1369.27	650.467
1370.86	661.699
1372.44	644.93
1374.02	644.829
1375.61	653.394
1377.19	646.626
1378.77	661.858
1380.35	639.757
1381.93	679.655
1383.52	668.887
1385.1	666.119
1386.68	664.018
1388.26	674.583
1389.84	643.148
1391.42	666.38
1393	663.612
1394.58	651.51
1396.16	649.409
1397.74	661.974
1399.31	644.54
1400.89	673.105
1402.47	666.337
1404.05	656.902
1405.63	647.467
1407.2	653.366
1408.78	673.931
1410.36	661.83
1411.93	657.062
1413.51	667.627
1415.08	690.859
1416.66	658.091
1418.23	667.989
1419.81	641.221
1421.38	658.453
1422.95	663.018
1424.53	666.25
1426.1	674.815
1427.68	676.047
1429.25	685.946
1430.82	677.178
1432.39	677.743
1433.96	677.642
1435.54	670.873
1437.11	689.439
1438.68	678.004
1440.25	665.236
1441.82	689.801
1443.39	713.7
1444.96	694.932
1446.53	703.497
1448.1	676.062
1449.67	697.961
1451.23	685.193
1452.8	691.758
1454.37	681.656
1455.94	696.222
1457.5	676.12
1459.07	690.685
1460.64	691.251
1462.21	685.149
1463.77	697.048
1465.34	672.946
1466.9	670.845
1468.47	670.077
1470.03	670.642
1471.6	687.874
1473.16	685.106
1474.72	685.004
1476.29	681.57
1477.85	679.468
1479.42	674.034
1480.98	682.599
1482.54	687.831
1484.1	701.729
1485.66	663.628
1487.23	688.86
1488.79	697.425
1490.35	703.324
1491.91	691.889
1493.47	709.121
1495.03	702.353
1496.59	706.918
1498.15	726.816
1499.71	710.715
1501.27	728.614
1502.83	741.845
1504.39	736.411
1505.94	756.976
1507.5	762.208
1509.06	789.44
1510.62	815.338
1512.17	828.57
1513.73	868.469
1515.29	909.701
1516.84	986.266
1518.4	1004.83
1519.95	1060.06
1521.51	1089.3
1523.06	1135.86
1524.62	1153.76
1526.17	1146.99
1527.72	1156.22
1529.28	1126.12
1530.83	1101.35
1532.38	1017.92
1533.94	993.15
1535.49	923.049
1537.04	878.947
1538.59	830.179
1540.15	822.745
1541.7	787.976
1543.25	764.542
1544.8	763.774
1546.35	762.339
1547.9	740.237
1549.45	738.136
1551	724.035
1552.55	725.266
1554.1	697.165
1555.65	694.397
1557.19	686.962
1558.74	692.861
1560.29	696.093
1561.84	677.325
1563.38	699.223
1564.93	686.455
1566.48	677.687
1568.02	674.252
1569.57	702.151
1571.12	678.049
1572.66	685.281
1574.2	664.513
1575.75	677.078
1577.3	691.644
1578.84	663.542
1580.38	687.441
1581.93	675.339
1583.47	673.238
1585.01	666.47
1586.56	659.035
1588.1	660.267
1589.64	658.832
1591.18	670.064
1592.72	677.963
1594.27	660.528
1595.81	674.426
1597.35	650.325
1598.89	659.557
1600.43	666.122
1601.97	672.688
1603.51	669.253
1605.05	674.485
1606.59	668.27
1608.12	664.504
1609.66	645.923
1611.2	666.647
1612.74	653.146
1614.27	647.473
1615.81	662.212
1617.35	644.417
1618.89	653.246
1620.42	638.177
1621.96	638.695
1623.5	656.214
1625.03	654.969
1626.57	656.472
1628.1	651.291
1629.63	663.63
1631.17	642.016
1632.7	644.426
1634.24	643.449
1635.77	651.528
1637.3	659.522
1638.84	651.843
1640.37	661.235
1641.9	652.523
1643.43	655.563
1644.97	648.356
1646.5	643.89
1648.03	649.187
1649.56	650.798
1651.09	656.751
1652.62	653.161
1654.15	640.685
1655.68	640.461
1657.21	648.614
1658.74	648.987
1660.27	663.065
1661.79	644.689
1663.32	651.063
1664.85	667.427
1666.38	659.662
1667.91	656.096
1669.43	651.195
1670.96	654.086
1672.49	640.298
1674.01	645.146
1675.54	652.781
1677.06	655.415
1678.59	663.854
1680.11	653.021
1681.64	651.686
1683.16	652.874
1684.69	646.069
1686.21	648.607
1687.73	648.879
1689.26	648.627
1690.78	659.422
1692.3	647.31
1693.83	661.193
1695.35	657.496
1696.87	650.535
1698.39	649.569
1699.91	654.299
1701.43	650.488
1702.96	629.681
1704.48	647.12
1706	638.924
1707.52	645.201
1709.04	630.135
1710.55	652.689
1712.07	648.267
1713.59	643.626
1715.11	643.93
1716.63	633.136
1718.15	634.696
1719.66	645.133
1721.18	644.435
1722.7	641.669
1724.21	633.826
1725.73	639.961
1727.25	633.535
1728.76	644.239
1730.28	641.948
1731.8	645.93
1733.31	636.852
1734.82	634.364
1736.34	640.871
1737.85	621.336
1739.37	639.671
1740.88	629.848
1742.39	643.37
1743.91	623.323
1745.42	622.699
1746.93	627.104
1748.45	634.902
1749.96	637.35
1751.47	636.485
1752.98	634.33
1754.49	624.027
1756	632.023
1757.51	625.868
1757.73	624.445
1759.25	637.716
1760.77	643.654
1762.28	616.924
1763.8	627.529
1765.31	625.466
1766.83	625.404
1768.34	632.008
1769.86	638.612
1771.37	627.216
1772.89	635.82
1774.4	627.758
1775.92	621.695
1777.43	631.633
1778.94	622.904
1780.46	654.175
1781.97	639.446
1783.48	626.05
1784.99	630.654
1786.51	635.258
1788.02	641.196
1789.53	623.133
1791.04	633.071
1792.55	641.008
1794.06	608.279
1795.57	638.883
1797.08	624.821
1798.59	635.425
1800.1	636.696
1801.61	619.3
1803.12	620.571
1804.63	613.842
1806.13	645.78
1807.64	624.384
1809.15	610.988
1810.66	630.259
1812.16	637.53
1813.67	641.467
1815.18	634.738
1816.68	634.009
1818.19	629.28
1819.7	639.217
1821.2	637.155
1822.71	636.426
1824.21	630.363
1825.72	620.968
1827.22	629.572
1828.72	634.843
1830.23	630.114
1831.73	647.384
1833.23	615.989
1834.74	611.926
1836.24	618.53
1837.74	615.135
1839.24	623.072
1840.75	619.676
1842.25	633.614
1843.75	629.551
1845.25	634.822
1846.75	629.426
1848.25	612.697
1849.75	635.968
1851.25	631.906
1852.75	616.51
1854.25	625.114
1855.75	615.718
1857.25	626.989
1858.75	620.927
1860.24	612.198
1861.74	616.135
1863.24	630.739
1864.74	626.677
1866.23	627.281
1867.73	629.219
1869.23	629.156
1870.72	619.76
1872.22	619.031
1873.71	622.969
1875.21	616.906
1876.7	632.844
1878.2	610.115
1879.69	610.052
1881.19	619.323
1882.68	633.261
1884.18	641.198
1885.67	629.136
1887.16	635.74
1888.66	628.344
1890.15	622.948
1891.64	630.219
1893.13	637.49
1894.62	626.094
1896.11	630.032
1897.61	619.303
1899.1	627.907
1900.59	632.511
1902.08	623.115
1903.57	623.72
1905.06	619.657
1906.55	652.928
1908.04	633.532
1909.53	610.136
1911.02	633.407
1912.5	626.012
1913.99	623.949
1915.48	608.553
1916.97	617.157
1918.46	629.095
1919.94	637.699
1921.43	616.97
1922.92	627.574
1924.4	628.845
1925.89	634.783
1927.37	638.054
1928.86	635.991
1930.34	623.929
1931.83	623.2
1933.31	621.137
1934.8	640.408
1936.28	640.346
1937.77	635.616
1939.25	630.887
1940.73	612.158
1942.22	612.762
1943.7	621.367
1945.18	624.637
1946.66	639.908
1948.14	617.846
1949.63	625.783
1951.11	615.721
1952.59	632.325
1954.07	618.929
1955.55	634.867
1957.03	616.804
1958.51	602.742
1959.99	610.679
1961.47	612.617
1962.95	607.888
1964.43	621.159
1965.91	597.096
1967.39	615.034
1968.86	618.305
1970.34	627.576
1971.82	629.513
1973.3	636.784
1974.77	622.055
1976.25	614.659
1977.73	636.597
1979.2	602.534
1980.68	622.472
1982.15	615.076
1983.63	627.68
1985.1	600.951
1986.58	619.555
1988.05	617.493
1989.53	621.43
1991	606.701
1992.47	615.305
1993.95	609.243
1995.42	608.514
1996.89	635.118
1998.37	608.389
1999.84	609.66
2001.31	612.93
2002.78	593.535
2004.25	606.806
2005.73	608.076
2007.2	623.347
2008.67	616.618
2010.14	627.889
2011.61	619.16
2013.08	599.097
2014.55	624.368
2016.02	617.639
2017.49	609.577
2018.96	616.181
2020.42	618.118
2021.89	605.389
2023.36	618.66
2024.83	619.264
2026.3	626.535
2027.76	614.473
2029.23	597.744
2030.7	626.348
2032.16	609.619
2033.63	616.223
2035.09	607.494
2036.56	599.431
2038.03	610.702
2039.49	613.306
2040.96	617.244
2042.42	607.848
2043.88	605.786
2045.35	622.39
2046.81	591.661
2048.28	608.932
2049.74	608.203
2051.2	624.14
2052.67	622.078
2054.13	612.682
2055.59	605.953
2057.05	605.89
2058.51	597.161
2059.97	604.432
2061.43	607.036
2062.9	610.307
2064.36	623.578
2065.82	614.182
2067.28	595.453
2068.74	608.057
2070.2	611.328
2071.65	607.266
2073.11	605.87
2074.57	597.141
2076.03	608.412
2077.49	611.682
2078.95	608.287
2080.4	614.891
2081.86	609.495
2083.32	604.099
2084.78	604.703
2086.23	600.641
2087.69	591.245
2089.15	604.516
2090.6	598.454
2092.05	598.391
2093.51	589.662
2094.97	594.266
2096.42	596.204
2097.87	590.808
2099.33	602.746
2100.78	593.35
2102.24	612.621
2103.69	605.225
2105.14	587.162
2106.6	619.767
2108.05	597.037
2109.5	600.308
2110.95	598.246
2112.4	588.183
2113.86	594.121
2115.31	598.725
2116.76	593.329
2118.21	595.267
2119.66	596.538
2121.11	590.475
2122.56	575.079
2124.01	597.684
2125.46	602.955
2126.91	588.892
2128.35	592.83
2129.8	581.434
2131.25	584.038
2132.7	607.309
2134.15	595.247
2135.59	587.184
2137.04	601.788
2138.49	595.726
2139.94	591.663
2141.38	585.601
2142.83	595.538
2144.27	590.809
2145.72	595.413
2147.16	590.684
2148.61	596.622
2150.05	593.893
2151.5	589.83
2152.94	581.101
2154.39	587.039
2155.83	578.31
2157.27	592.247
2158.72	590.851
2160.16	594.122
2161.6	591.393
2163.05	595.997
2164.49	594.602
2165.93	579.872
2167.37	599.81
2168.81	606.414
2170.26	599.018
2171.7	590.289
2173.14	584.893
2174.58	582.164
2176.02	614.102
2177.46	570.039
2178.9	597.31
2180.34	596.581
2181.77	585.852
2183.21	589.123
2184.65	583.727
2186.09	596.998
2187.53	577.602
2188.97	598.206
2190.4	601.477
2191.84	596.081
2193.28	596.019
2194.71	599.29
2196.15	582.561
2197.59	573.831
2199.02	593.102
2200.46	580.373
2201.89	601.644
2203.33	583.582
2204.76	588.186
2206.2	579.457
2207.63	580.061
2209.07	567.998
2210.5	581.269
2211.93	592.54
2213.37	579.144
2214.8	567.749
2216.23	559.02
2217.67	571.624
2219.1	571.561
2220.53	572.832
2221.96	572.103
2223.39	565.374
2224.82	575.978
2226.26	567.249
2227.69	575.853
2229.12	559.124
2230.55	555.062
2231.98	565.666
2233.41	565.603
2234.84	555.541
2236.26	560.812
2237.69	556.749
2239.12	564.02
2240.55	549.958
2241.98	566.562
2243.41	558.499
2244.83	547.77
2246.26	553.708
2247.69	557.645
2249.11	569.583
2250.54	559.52
2251.97	556.791
2253.39	557.396
2254.82	554
2256.24	571.937
2257.67	547.208
2259.09	542.479
2260.52	545.75
2261.94	557.687
2263.37	554.292
2264.79	556.229
2266.22	569.5
2267.64	562.771
2269.06	551.375
2270.49	555.313
2271.91	547.917
2273.33	546.521
2274.75	563.125
2276.18	555.063
2277.59	537
2279.02	554.271
2280.44	546.875
2281.86	548.813
2283.28	538.084
2284.7	556.688
2286.12	573.292
2287.54	563.23
2288.96	563.167
2290.38	565.105
2291.8	555.042
2293.22	543.647
2294.63	550.917
2296.05	562.855
2297.47	550.126
2298.89	556.73
2300.31	555.334
2301.72	570.605
2303.14	553.209
2304.56	563.814
2305.97	563.084
2307.39	570.355
2308.81	548.96
2310.22	559.564
2311.64	569.501
2313.05	551.439
2314.47	579.376
2315.88	560.647
2317.3	555.251
2318.71	561.856
2320.12	577.793
2321.54	565.064
2322.95	543.668
2324.36	561.606
2325.78	564.877
2327.19	572.814
2328.6	558.752
2330.01	568.689
2331.43	546.627
2332.84	557.898
2334.25	555.169
2335.66	562.439
2337.07	546.377
2338.48	568.315
2339.89	542.919
2341.3	555.523
2342.71	558.794
2344.12	549.398
2345.53	563.336
2346.94	555.273
2348.35	556.544
2349.76	546.481
2351.17	552.419
2352.57	555.69
2353.98	547.627
2355.39	548.898
2356.8	544.836
2358.2	537.44
2359.61	532.711
2361.02	539.982
2362.42	546.586
2363.83	559.19
2365.23	547.128
2366.64	542.399
2368.04	550.336
2369.45	554.274
2370.85	545.545
2372.26	560.815
2373.66	548.086
2375.07	531.357
2376.47	529.295
2377.87	522.566
2379.28	527.17
2380.68	529.774
2382.08	548.378
2383.49	522.982
2384.89	552.253
2386.29	537.524
2387.69	519.462
2389.09	516.066
2390.49	528.67
2391.9	531.941
2393.3	528.545
2394.7	519.816
2396.1	531.754
2397.5	525.691
2398.9	528.295
2400.29	532.233
2401.69	530.17
2403.09	532.775
2404.49	532.045
2405.89	535.983
2407.29	525.921
2408.69	521.858
2410.08	509.129
2411.48	511.066
2412.88	514.337
2414.28	532.275
2415.67	526.212
2417.07	517.483
2418.47	509.421
2419.86	540.692
2421.26	543.963
2422.65	530.567
2424.05	517.838
2425.44	528.442
2426.84	519.046
2428.23	531.65
2429.62	521.588
2431.02	539.525
2432.41	515.463
2433.81	520.067
2435.2	538.005
2436.59	524.609
2437.98	531.213
2439.38	554.484
2440.77	537.088
2442.16	532.359
2443.55	540.963
2444.94	543.567
2446.34	530.838
2447.73	518.776
2449.12	543.38
2450.51	529.984
2451.9	539.922
2453.29	541.193
2454.68	527.797
2456.07	535.734
2457.46	521.672
2458.84	528.276
2460.23	532.214
2461.62	539.485
2463.01	535.422
2464.4	540.026
2465.78	521.297
2467.17	527.901
2468.56	523.839
2469.95	539.776
2471.33	557.047
2472.72	530.985
2474.1	542.256
2475.49	534.86
2476.88	537.464
2478.26	533.402
2479.65	546.006
2481.03	529.277
2482.42	539.881
2483.8	527.819
2485.19	541.089
2486.57	527.027
2487.95	532.298
2489.34	531.569
2490.72	535.506
2492.1	537.444
2493.49	530.048
2494.87	515.319
2496.25	547.256
2497.63	532.527
2499.01	528.465
2500.39	531.069
2501.77	537.673
2503.16	538.277
2504.54	543.548
2505.92	533.486
2507.3	535.423
2508.68	525.361
2510.06	528.632
2511.44	534.569
2512.81	541.173
2514.19	535.111
2515.57	532.382
2516.95	518.319
2518.33	530.257
2519.71	519.528
2521.08	544.799
2522.46	530.07
2523.84	536.007
2525.22	515.278
2526.59	518.549
2527.97	534.486
2529.35	527.091
2530.72	534.361
2532.1	518.299
2533.47	508.903
2534.85	527.507
2536.22	516.112
2537.6	536.716
2538.97	549.987
2540.35	507.924
2541.72	515.195
2543.09	527.133
2544.47	505.07
2545.84	520.341
2547.21	509.612
2548.59	528.883
2549.96	527.487
2551.33	525.425
2552.7	503.362
2554.08	517.966
2555.45	521.237
2556.82	530.508
2558.19	527.112
2559.56	517.716
2560.93	514.321
2562.3	528.258
2563.67	514.862
2565.04	517.467
2566.41	524.737
2567.78	515.342
2569.15	509.279
2570.52	513.883
2571.89	539.154
2573.25	529.092
2574.62	512.363
2575.99	506.967
2577.36	516.904
2578.73	506.842
2580.09	525.446
2581.46	520.05
2582.83	527.321
2584.19	493.925
2585.56	523.196
2586.93	523.134
2588.29	535.738
2589.66	535.676
2591.02	530.28
2592.39	526.884
2593.75	535.488
2595.12	520.092
2596.48	520.697
2597.84	529.301
2599.21	519.905
2600.57	511.843
2601.93	514.447
2603.3	523.051
2604.66	501.655
2606.02	519.593
2607.39	524.197
2608.75	512.135
2610.11	520.739
2611.47	534.01
2612.83	511.947
2614.19	533.885
2615.55	523.156
2616.91	527.76
2618.27	526.364
2619.63	524.301
2620.99	516.906
2622.35	516.843
2623.71	528.781
2625.07	526.052
2626.43	518.656
2627.79	517.927
2629.15	503.864
2630.51	529.802
2631.86	509.739
2633.22	528.344
2634.58	532.281
2635.94	520.885
2637.29	517.489
2638.65	533.427
2640.01	532.031
2641.36	533.302
2642.72	527.24
2644.08	523.844
2645.43	520.448
2646.79	515.719
2648.14	516.323
2649.49	516.927
2650.85	517.532
2652.2	522.802
2653.56	522.073
2654.91	529.344
2656.26	527.948
2657.62	539.886
2658.97	531.157
2660.32	546.428
2661.68	521.699
2663.03	508.969
2664.38	518.907
2665.73	505.511
2667.09	521.449
2668.44	524.72
2669.79	521.324
2671.14	512.595
2672.49	520.532
2673.84	529.136
2675.19	531.741
2676.54	515.678
2677.89	527.616
2679.24	522.22
2680.59	526.824
2681.94	516.095
2683.29	518.699
2684.63	533.303
2685.98	539.241
2687.33	499.845
2688.68	517.116
2690.03	509.053
2691.37	528.991
2692.72	516.262
2694.07	516.199
2695.41	525.47
2696.76	523.408
2698.11	522.679
2699.45	501.283
2700.8	503.22
2702.14	509.825
2703.49	515.762
2704.83	519.033
2706.18	513.637
2707.52	528.908
2708.87	505.512
2710.21	511.45
2711.55	510.721
2712.9	499.325
2714.24	525.929
2715.58	499.867
2716.93	513.138
2718.27	519.742
2719.61	514.346
2720.95	521.617
2722.3	518.888
2723.64	513.492
2724.98	514.763
2726.32	512.7
2727.66	514.638
2729	516.575
2730.34	505.846
2731.68	510.451
2733.02	507.721
2734.36	516.992
2735.7	498.93
2737.04	495.534
2738.38	515.472
2739.72	518.742
2741.06	507.347
2742.39	506.617
2743.73	498.555
2745.07	495.826
2746.41	503.097
2747.74	506.368
2749.08	506.305
2750.42	514.243
2751.75	513.514
2753.09	504.118
2754.43	498.722
2755.76	526.66
2757.1	501.264
2758.43	506.535
2759.77	493.806
2761.1	505.743
2762.44	503.681
2763.77	510.951
2765.11	510.222
2766.44	489.493
2767.78	503.431
2769.11	510.035
2770.44	521.972
2771.78	518.577
2773.11	507.181
2774.44	485.118
2775.77	525.723
2777.11	501.66
2778.44	508.264
2779.77	506.869
2781.1	516.806
2782.43	504.744
2783.76	511.348
2785.09	481.285
2786.42	493.89
2787.76	491.16
2789.08	483.765
2790.41	495.036
2791.74	521.64
2793.07	497.577
2794.4	495.515
2795.73	506.119
2797.06	525.39
2798.39	497.327
2799.72	507.265
2801.04	519.203
2802.37	495.807
2803.7	513.078
2805.03	507.682
2806.35	504.286
2807.68	523.557
2809.01	501.494
2810.33	495.432
2811.66	498.703
2812.98	514.64
2814.31	499.245
2815.63	499.849
2816.96	507.12
2818.28	497.057
2819.61	499.661
2820.94	512.932
2822.26	500.87
2823.58	510.141
2824.91	508.745
2826.23	502.016
2827.55	484.62
2828.88	510.557
2830.2	497.828
2831.52	515.099
2832.84	499.703
2834.16	498.308
2835.49	504.245
2836.81	498.183
2838.13	497.454
2839.45	500.725
2840.77	491.329
2842.09	503.266
2843.41	501.87
2844.73	494.475
2846.05	490.412
2847.37	497.016
2848.69	506.287
2850.01	492.225
2851.33	489.496
2852.65	504.767
2853.97	518.037
2855.29	488.642
2856.6	503.912
2857.92	504.517
2859.24	483.788
2860.56	505.058
2861.87	499.663
2863.19	507.6
2864.51	500.204
2865.82	486.809
2867.14	496.079
2868.46	482.017
2869.77	507.288
2871.09	493.892
2872.4	509.163
2873.72	521.1
2875.03	496.371
2876.35	492.309
2877.66	495.58
2878.98	494.851
2880.29	506.121
2881.6	484.726
2882.92	493.997
2884.23	501.267
2885.54	503.205
2886.86	501.809
2888.17	501.747
2889.48	518.351
2890.79	512.289
2892.1	488.226
2893.42	510.164
2894.73	498.101
2896.04	499.372
2897.35	497.31
2898.66	490.58
2899.97	499.851
2901.28	501.789
2902.59	493.06
2903.9	496.331
2905.21	496.935
2906.52	496.872
2907.83	498.81
2909.14	516.081
2910.45	509.352
2911.76	510.622
2913.06	508.56
2914.37	495.831
2915.68	505.768
2916.99	485.706
2918.29	506.977
2919.6	491.581
2920.91	498.852
2922.21	488.789
2923.52	499.394
2924.83	496.664
2926.13	478.602
2927.44	497.206
2928.74	489.81
2930.05	492.415
2931.35	497.686
2932.66	506.29
2933.96	507.561
2935.27	480.831
2936.57	498.102
2937.88	496.04
2939.18	493.311
2940.48	490.582
2941.79	495.186
2943.09	487.123
2944.39	502.394
2945.69	498.998
2946.99	497.603
2948.3	490.874
2949.6	479.478
2950.9	488.082
2952.2	505.353
2953.5	493.957
2954.8	500.561
2956.1	505.832
2957.4	487.77
2958.7	472.374
2960	495.645
2961.3	510.916
2962.6	500.186
2963.9	504.124
2965.2	486.728
2966.5	479.999
2967.8	484.603
2969.1	485.207
2970.4	478.478
2971.69	480.416
2972.99	488.353
2974.29	495.624
2975.59	486.895
2976.88	477.499
2978.18	491.437
2979.48	474.708
2980.77	468.645
2982.07	487.25
2983.36	479.187
2984.66	477.125
2985.95	488.395
2987.25	472.333
2988.55	492.271
2989.84	475.541
2991.13	473.479
2992.43	482.083
2993.72	465.354
2995.02	477.958
2996.31	468.562
2997.6	469.833
2998.9	475.771
3000.19	479.708
3001.48	470.313
3002.77	478.25
3004.07	486.188
3005.36	466.125
3006.65	470.063
3007.94	462
3009.23	485.938
3010.53	469.875
3011.82	476.48
3013.11	473.084
3014.4	476.355
3015.69	474.959
3016.98	489.563
3018.27	482.167
3019.56	472.105
3020.85	466.709
3022.13	491.313
3023.42	474.584
3024.71	471.855
3026	469.126
3027.29	476.397
3028.58	477.668
3029.86	464.272
3031.15	476.876
3032.44	468.814
3033.73	472.751
3035.01	474.689
3036.3	477.293
3037.58	456.564
3038.87	489.168
3040.16	481.772
3041.44	480.376
3042.73	464.98
3044.01	480.251
3045.3	474.189
3046.58	466.126
3047.87	474.731
