#Acq. time (s)=	15
#Accumulations=	4
#Range (cm-¹)=	50...4000
#Windows=	3
#Autofocus=	Off
#AutoExposure=	Off
#Spike filter=	Multiple accum.
#Delay time (s)=	0
#Binning=	1
#Readout mode=	Signal
#DeNoise=	Off
#ICS correction=	Off
#Dark correction=	Off
#Inst. Process=	Off
#Instrument=	LabRAM HR Evol
#Detector=	Syncerity OE
#Objective=	x100_VIS
#Grating=	600 (500nm)
#ND Filter=	5%
#Laser=	532nm_Edge
#Hole=	100.021
#Range=	Visible
#Project=	Omar
#Sample=	120523
#Site=	ap
#Title=	mz
#Remark=	5 laser intensity
#Date=	12.05.2023 17:17
#Acquired=	12.05.2023 17:17:49
51.0297	17.3333
52.8754	26.5699
54.7185	28.473
56.5635	31.0429
58.406	35.6128
60.2502	48.1826
62.0919	62.0858
63.9355	85.3223
65.7765	95.2255
67.6193	120.462
69.4595	141.699
71.3016	164.268
73.1412	210.838
74.9825	256.075
76.8214	269.978
78.662	301.215
80.5001	307.118
82.34	337.688
84.1774	360.924
86.0166	384.827
87.8532	414.73
89.6917	405.967
91.5276	414.537
93.3632	398.44
95.2006	397.677
97.0355	409.58
98.8721	419.483
100.706	423.386
102.54	405.289
104.376	415.859
106.209	441.762
108.041	420.332
109.876	437.569
111.708	446.139
113.542	432.042
115.373	431.278
117.204	464.515
119.036	450.418
120.867	436.988
122.697	428.224
124.526	446.128
126.357	433.364
128.186	449.267
130.014	441.171
131.845	441.074
133.672	444.31
135.5	455.547
137.327	446.783
139.155	450.02
140.982	461.923
142.807	465.826
144.633	453.063
146.46	468.966
148.285	459.536
150.11	458.106
151.934	473.342
153.757	461.245
155.583	469.815
157.406	450.385
159.229	484.955
161.051	466.191
162.873	482.761
164.697	469.331
166.518	444.568
168.339	471.138
170.159	494.374
171.98	476.277
173.799	472.18
175.619	465.417
177.44	478.654
179.259	467.223
181.077	459.793
182.895	471.03
184.713	483.6
186.53	484.836
188.347	488.739
190.164	483.976
191.98	488.546
193.796	496.449
195.612	483.019
197.427	495.589
199.242	487.492
201.059	489.395
202.873	475.298
204.686	485.868
206.5	484.438
208.313	478.341
210.126	475.578
211.938	484.147
213.75	493.384
215.562	503.287
217.373	495.857
219.184	485.76
220.993	486.33
222.803	476.233
224.613	492.137
226.422	482.706
228.232	495.276
230.04	488.513
231.849	505.083
233.657	480.986
235.465	488.889
237.272	485.459
239.079	504.029
240.886	501.932
242.693	501.168
244.497	495.072
246.302	484.308
248.108	505.545
249.913	498.115
251.717	499.351
253.521	495.254
255.325	499.824
257.127	510.394
258.93	509.63
260.733	511.534
262.535	502.104
264.338	492.673
266.137	501.91
267.939	493.813
269.74	508.383
271.541	514.286
273.341	518.189
275.139	503.426
276.939	492.662
278.738	511.232
280.537	508.469
282.334	513.039
284.132	490.942
285.93	519.512
287.728	506.748
289.523	501.985
291.32	501.888
293.117	515.791
294.911	511.028
296.707	516.931
298.502	513.501
300.295	517.404
302.09	527.307
303.885	497.21
305.677	516.447
307.47	539.683
309.264	520.92
311.055	527.49
312.848	530.06
314.64	508.629
316.43	543.866
318.222	539.102
320.011	525.672
321.802	525.576
323.593	537.479
325.381	542.715
327.171	542.618
328.958	535.188
330.748	521.091
332.535	538.995
334.323	542.231
336.109	543.468
337.897	538.038
339.685	531.274
341.47	560.511
343.257	547.081
345.041	534.984
346.827	528.22
348.611	503.457
350.397	534.693
352.18	527.93
353.962	526.5
355.747	529.736
357.529	547.639
359.312	530.876
361.094	548.779
362.877	564.016
364.658	518.585
366.44	536.489
368.22	553.058
369.999	561.628
371.781	548.865
373.56	537.435
375.34	532.005
377.119	558.574
378.896	542.478
380.676	547.047
382.453	558.951
384.23	550.187
386.009	543.424
387.785	555.327
389.561	563.897
391.338	580.467
393.113	558.37
394.888	555.606
396.665	544.843
398.439	557.413
400.213	541.983
401.988	559.219
403.761	550.456
405.534	566.359
407.306	555.595
409.081	558.165
410.852	553.402
412.624	569.972
414.395	581.208
416.167	555.778
417.938	555.681
419.708	559.584
421.477	568.154
423.249	572.057
425.018	545.294
426.786	545.197
428.555	553.767
430.323	551.67
432.092	560.907
433.86	564.143
435.627	556.713
437.393	560.616
439.16	571.853
440.926	565.089
442.691	574.993
444.458	571.562
446.223	577.466
447.988	568.035
449.752	566.605
451.516	579.842
453.28	574.412
455.043	572.982
456.806	592.218
458.568	582.788
460.33	582.691
462.092	583.261
463.854	593.831
465.615	588.401
467.378	590.971
469.138	600.207
470.899	584.11
472.658	588.68
474.418	591.917
476.177	598.486
477.936	601.056
479.694	601.626
481.452	602.196
483.21	593.433
484.966	609.336
486.723	603.239
488.48	589.809
490.236	591.045
491.992	605.615
493.748	594.852
495.503	601.422
497.258	616.658
499.013	599.895
500.768	588.465
502.522	592.368
504.276	598.938
506.029	605.507
507.78	610.077
509.533	607.98
511.285	597.217
513.037	607.12
514.789	605.023
516.54	590.927
518.289	609.496
520.04	604.066
521.791	608.636
523.541	617.873
525.29	621.776
527.04	620.346
528.787	618.916
530.536	612.152
532.284	606.055
534.032	602.625
535.778	622.528
537.525	621.098
539.272	637.001
541.019	621.571
542.763	625.474
544.509	616.711
546.255	619.281
548	615.851
549.743	619.087
551.488	624.324
553.232	642.227
554.974	626.797
556.718	628.033
558.462	647.27
560.203	633.84
561.945	627.743
563.688	635.646
565.428	626.216
567.169	615.452
568.911	620.022
570.65	640.592
572.391	634.495
574.129	622.399
575.869	615.635
577.609	620.205
579.346	622.108
581.085	634.678
582.822	634.581
584.56	643.818
586.296	633.054
588.034	641.624
589.771	622.194
591.506	610.097
593.243	642
594.978	625.904
596.714	615.807
598.447	633.043
600.183	636.946
601.916	625.516
603.651	630.753
605.383	649.323
607.117	631.893
608.849	629.129
610.582	645.032
612.313	634.269
614.044	656.172
615.776	656.075
617.507	636.645
619.238	646.548
620.968	648.451
622.699	651.021
624.428	652.258
626.156	658.828
627.886	647.397
629.614	640.634
631.342	653.87
633.071	669.107
634.797	667.01
636.526	652.247
638.252	658.15
639.978	663.386
641.705	675.29
643.431	673.859
645.155	646.429
646.88	672.333
648.606	674.902
650.33	674.806
652.053	672.042
653.779	678.612
655.502	658.515
657.224	683.085
658.946	662.322
660.67	664.891
662.392	654.128
664.113	680.698
665.834	671.268
667.556	679.171
669.277	677.741
670.997	668.977
672.716	670.214
674.435	678.784
676.156	646.687
677.875	659.257
679.593	649.827
681.311	665.063
683.029	681.633
684.746	664.203
686.465	659.439
688.182	667.343
689.898	669.912
691.614	673.816
693.33	659.052
695.045	671.622
696.76	679.525
698.475	666.762
700.189	671.998
701.904	670.568
703.619	677.805
705.333	677.041
707.046	682.944
708.759	688.181
710.471	662.751
712.183	669.32
713.895	677.89
715.606	684.46
717.317	675.697
719.028	700.267
720.739	693.503
722.449	688.073
724.159	699.976
725.868	685.213
727.578	687.783
729.286	677.686
730.995	684.256
732.703	679.492
734.409	680.062
736.117	678.632
737.824	693.202
739.531	670.438
741.237	689.008
742.944	698.911
744.65	666.815
746.355	694.051
748.061	669.288
749.766	699.857
751.468	684.427
753.173	687.664
754.877	676.9
756.581	706.137
758.284	692.04
759.987	679.943
761.688	665.846
763.39	677.75
765.092	698.986
766.794	684.889
768.496	695.459
770.195	687.362
771.896	683.932
773.596	681.169
775.296	685.739
776.994	678.308
778.694	697.545
780.393	681.448
782.092	694.018
783.788	681.255
785.487	689.824
787.185	671.728
788.882	692.964
790.578	710.867
792.274	709.437
793.971	678.007
795.666	690.577
797.362	694.48
799.057	689.05
800.751	692.953
802.446	660.856
804.138	702.093
805.833	700.663
807.527	714.566
809.219	686.469
810.912	687.706
812.605	681.609
814.296	710.179
815.989	692.082
817.679	700.652
819.371	721.221
821.06	699.791
822.752	695.695
824.441	716.265
826.131	724.834
827.822	716.738
829.51	702.641
831.199	703.211
832.887	685.78
834.576	707.017
836.262	702.253
837.951	708.823
839.637	696.727
841.323	715.963
843.01	707.2
844.695	713.103
846.382	729.673
848.066	722.242
849.753	722.146
851.436	714.716
853.122	717.285
854.805	722.522
856.488	730.425
858.173	758.995
859.855	703.565
861.539	711.468
863.221	734.038
864.902	722.608
866.585	732.511
868.266	711.747
869.946	717.651
871.628	702.887
873.308	728.124
874.987	720.694
876.668	745.93
878.347	717.167
880.026	724.403
881.704	718.306
883.384	724.209
885.061	720.779
886.739	720.683
888.418	707.252
890.094	735.822
891.771	712.392
893.447	708.295
895.122	718.199
896.799	724.102
898.475	716.672
900.149	707.908
901.824	733.145
903.498	708.381
905.174	720.284
906.847	715.521
908.52	712.757
910.193	710.661
911.866	723.897
913.538	715.134
915.212	699.703
916.883	724.94
918.555	737.51
920.226	729.413
921.896	731.983
923.567	726.553
925.237	718.456
926.907	727.692
928.576	706.262
930.245	722.832
931.914	710.069
933.584	719.972
935.253	732.542
936.92	736.445
938.588	745.681
940.255	726.251
941.922	716.821
943.589	730.058
945.255	730.628
946.921	720.531
948.587	738.434
950.252	739.004
951.917	736.24
953.582	739.477
955.244	728.047
956.909	739.95
958.572	740.52
960.236	717.756
961.899	728.993
963.562	748.896
965.225	736.133
966.887	732.036
968.549	721.272
970.211	739.842
971.872	734.412
973.531	746.315
975.192	735.552
976.852	732.122
978.512	744.691
980.172	751.928
981.831	736.498
983.489	745.068
985.148	749.638
986.806	748.874
988.464	725.444
990.122	732.014
991.778	737.917
993.435	755.153
995.092	728.39
996.749	730.96
998.404	760.196
1000.06	740.1
1001.72	734.003
1003.37	749.239
1005.02	745.809
1006.68	749.712
1008.33	749.616
1009.99	746.185
1011.64	738.755
1013.29	747.325
1014.95	737.228
1016.6	737.798
1018.25	736.368
1019.9	762.271
1021.55	743.508
1023.2	727.411
1024.85	743.314
1026.51	740.551
1028.16	761.787
1029.81	731.024
1031.46	735.594
1033.1	759.497
1034.75	750.733
1036.4	738.636
1038.05	738.54
1039.7	769.109
1041.34	745.679
1042.99	746.916
1044.64	742.819
1046.29	751.389
1047.93	745.292
1049.58	767.862
1051.22	769.765
1052.87	771.668
1054.51	779.571
1056.16	776.141
1057.8	772.045
1059.45	778.614
1061.09	773.184
1062.73	761.087
1064.38	762.324
1066.02	748.227
1067.66	770.13
1069.3	766.034
1070.95	775.937
1072.59	771.84
1074.23	766.41
1075.87	783.646
1077.51	775.55
1079.15	766.119
1080.79	780.023
1082.43	776.592
1084.07	766.496
1085.71	771.066
1087.35	781.635
1088.99	787.539
1090.62	780.775
1092.26	740.012
1093.9	755.248
1095.53	761.151
1097.17	781.721
1098.81	754.958
1100.44	762.861
1102.08	764.097
1103.71	774.667
1105.35	802.57
1106.99	763.14
1108.62	778.377
1110.25	776.28
1111.89	749.517
1113.52	760.086
1115.15	767.99
1116.79	786.56
1118.42	777.796
1120.05	743.699
1121.68	747.602
1123.31	766.172
1124.95	786.742
1126.58	762.645
1128.21	801.215
1129.84	772.452
1131.47	782.355
1133.1	760.925
1134.73	772.828
1136.36	796.064
1137.98	777.968
1139.61	767.871
1141.24	769.107
1142.87	755.011
1144.5	762.247
1146.12	763.484
1147.75	747.387
1149.38	792.623
1151	775.193
1152.63	775.763
1154.26	762.333
1155.88	784.236
1157.51	776.139
1159.13	794.042
1160.76	795.946
1162.38	784.516
1164	793.752
1165.63	766.989
1167.25	788.225
1168.87	780.128
1170.49	802.698
1172.12	769.935
1173.74	785.171
1175.36	809.074
1176.98	778.311
1178.6	814.214
1180.22	806.784
1181.84	790.02
1183.46	770.59
1185.08	797.16
1186.7	799.063
1188.32	797.633
1189.94	794.203
1191.56	798.773
1193.18	784.676
1194.79	799.913
1196.41	791.816
1198.03	815.719
1199.64	786.289
1201.26	817.525
1202.88	796.762
1204.49	799.332
1206.11	806.568
1207.72	779.138
1209.34	787.041
1210.95	829.611
1212.57	764.848
1214.18	818.751
1215.8	797.987
1217.41	799.224
1219.02	798.461
1220.64	803.03
1222.25	810.934
1223.86	787.503
1225.47	802.073
1227.08	802.643
1228.69	786.546
1230.3	800.45
1231.92	791.686
1233.53	810.256
1235.14	799.492
1236.75	794.729
1238.35	808.632
1239.96	779.202
1241.57	789.772
1243.18	807.675
1244.79	804.912
1246.4	798.148
1248.01	808.718
1249.61	807.954
1251.22	799.191
1252.82	798.428
1254.43	814.331
1256.04	800.901
1257.64	808.804
1259.25	817.374
1260.85	793.277
1262.46	817.847
1264.06	811.083
1265.67	803.653
1267.27	800.89
1268.87	802.126
1270.48	800.029
1272.08	809.933
1273.68	793.836
1275.28	797.072
1276.89	805.642
1278.49	796.212
1280.09	814.115
1281.69	796.018
1283.29	815.255
1284.89	799.158
1286.49	828.395
1288.09	826.631
1289.69	822.201
1291.29	835.437
1292.89	816.674
1294.49	816.577
1296.09	819.814
1297.68	829.05
1299.28	852.953
1300.88	816.19
1302.48	835.426
1304.07	824.663
1305.67	841.233
1307.26	837.803
1308.86	825.706
1310.46	816.276
1312.05	838.179
1313.65	814.749
1315.24	823.985
1316.84	817.888
1318.43	819.792
1320.02	827.028
1321.62	855.598
1323.21	832.168
1324.8	836.738
1326.39	825.974
1327.99	832.544
1329.58	857.114
1331.17	823.684
1332.76	826.254
1334.35	824.157
1335.94	846.06
1337.53	820.63
1339.12	837.867
1340.71	819.77
1342.3	808.34
1343.89	840.909
1345.48	830.813
1347.07	847.383
1348.65	838.619
1350.24	815.856
1351.83	820.425
1353.42	826.995
1355	833.565
1356.59	813.468
1358.18	822.705
1359.76	837.941
1361.35	830.511
1362.93	821.081
1364.52	828.318
1366.1	840.221
1367.69	840.791
1369.27	822.027
1370.86	820.597
1372.44	839.167
1374.02	835.737
1375.61	816.307
1377.19	846.21
1378.77	843.446
1380.35	855.35
1381.93	837.253
1383.52	833.156
1385.1	839.726
1386.68	848.296
1388.26	836.865
1389.84	851.435
1391.42	829.339
1393	829.908
1394.58	841.145
1396.16	833.715
1397.74	830.285
1399.31	853.521
1400.89	820.091
1402.47	837.328
1404.05	859.897
1405.63	819.801
1407.2	832.37
1408.78	846.94
1410.36	845.51
1411.93	862.747
1413.51	845.317
1415.08	849.22
1416.66	845.79
1418.23	837.693
1419.81	849.596
1421.38	846.833
1422.95	867.402
1424.53	863.972
1426.1	841.875
1427.68	847.112
1429.25	854.348
1430.82	876.252
1432.39	865.488
1433.96	854.725
1435.54	847.961
1437.11	860.531
1438.68	840.434
1440.25	853.671
1441.82	868.241
1443.39	858.81
1444.96	849.38
1446.53	866.617
1448.1	842.52
1449.67	868.423
1451.23	870.326
1452.8	858.896
1454.37	870.799
1455.94	878.703
1457.5	845.273
1459.07	856.509
1460.64	881.746
1462.21	852.982
1463.77	860.219
1465.34	851.455
1466.9	845.358
1468.47	869.928
1470.03	874.498
1471.6	851.068
1473.16	867.638
1474.72	862.874
1476.29	856.111
1477.85	857.347
1479.42	848.584
1480.98	843.154
1482.54	854.39
1484.1	852.294
1485.66	862.197
1487.23	854.1
1488.79	868.003
1490.35	854.573
1491.91	842.476
1493.47	851.713
1495.03	866.283
1496.59	829.519
1498.15	891.422
1499.71	850.659
1501.27	862.562
1502.83	873.798
1504.39	856.368
1505.94	868.938
1507.5	869.508
1509.06	871.411
1510.62	875.981
1512.17	864.551
1513.73	875.787
1515.29	857.024
1516.84	854.927
1518.4	870.83
1519.95	892.067
1521.51	885.303
1523.06	898.54
1524.62	905.776
1526.17	891.68
1527.72	909.583
1529.28	879.486
1530.83	894.056
1532.38	887.292
1533.94	869.196
1535.49	883.099
1537.04	879.669
1538.59	898.238
1540.15	886.808
1541.7	892.712
1543.25	879.948
1544.8	884.518
1546.35	883.088
1547.9	884.324
1549.45	894.894
1551	894.797
1552.55	884.701
1554.1	870.604
1555.65	892.507
1557.19	887.743
1558.74	892.313
1560.29	904.217
1561.84	878.786
1563.38	877.356
1564.93	890.593
1566.48	877.829
1568.02	885.066
1569.57	905.636
1571.12	923.539
1572.66	886.775
1574.2	879.345
1575.75	881.915
1577.3	887.152
1578.84	859.721
1580.38	892.291
1581.93	886.861
1583.47	882.764
1585.01	864.668
1586.56	896.571
1588.1	885.141
1589.64	883.044
1591.18	880.28
1592.72	888.85
1594.27	859.42
1595.81	907.323
1597.35	885.893
1598.89	893.796
1600.43	849.7
1601.97	888.269
1603.51	862.839
1605.05	880.742
1606.59	872.647
1608.12	873.096
1609.66	892.302
1611.2	884.024
1612.74	865.128
1614.27	879.133
1615.81	902.328
1617.35	859.371
1618.89	882.651
1620.42	872.749
1621.96	854.797
1623.5	874.343
1625.03	875.794
1626.57	882.167
1628.1	882.245
1629.63	887.397
1631.17	889.767
1632.7	876.777
1634.24	872.632
1635.77	876.473
1637.3	880.902
1638.84	876.716
1640.37	871.604
1641.9	893.096
1643.43	894.671
1644.97	883.217
1646.5	891.735
1648.03	888.349
1649.56	895.029
1651.09	891.794
1652.62	893.855
1654.15	888.605
1655.68	898.104
1657.21	888.809
1658.74	899.073
1660.27	898.768
1661.79	900.447
1663.32	899.984
1664.85	901.227
1666.38	885.121
1667.91	918.09
1669.43	908.937
1670.96	888.942
1672.49	902.999
1674.01	898.954
1675.54	889.431
1677.06	897.757
1678.59	901.026
1680.11	896.438
1681.64	909.414
1683.16	895.258
1684.69	910.427
1686.21	910.078
1687.73	907.451
1689.26	915.55
1690.78	912.346
1692.3	907.866
1693.83	909.793
1695.35	899.627
1696.87	907.991
1698.39	906.661
1699.91	896.129
1701.43	904.499
1702.96	906.384
1704.48	915.292
1706	904.68
1707.52	915.072
1709.04	899.874
1710.55	897.503
1712.07	900.118
1713.59	901.827
1715.11	886.021
1716.63	899.205
1718.15	879.801
1719.66	916.083
1721.18	897.657
1722.7	890.946
1724.21	895.688
1725.73	888.305
1727.25	895.395
1728.76	872.374
1730.28	899.287
1731.8	883.084
1733.31	891.177
1734.82	898.676
1736.34	901.645
1737.85	894.286
1739.37	897.003
1740.88	887.412
1742.39	897.363
1743.91	897.426
1745.42	873.318
1746.93	882.129
1748.45	895.69
1749.96	898.871
1751.47	888.499
1752.98	889.482
1754.49	900.419
1756	903.58
1757.51	903.179
1757.73	903.142
1759.25	885.803
1760.77	893.798
1762.28	888.459
1763.8	909.12
1765.31	882.448
1766.83	899.109
1768.34	903.77
1769.86	884.431
1771.37	879.093
1772.89	911.087
1774.4	897.082
1775.92	894.409
1777.43	909.071
1778.94	909.065
1780.46	889.06
1781.97	889.054
1783.48	902.382
1784.99	895.71
1786.51	895.037
1788.02	890.365
1789.53	891.026
1791.04	903.688
1792.55	916.349
1794.06	900.343
1795.57	905.004
1797.08	902.332
1798.59	908.327
1800.1	898.321
1801.61	910.316
1803.12	908.31
1804.63	931.638
1806.13	925.633
1807.64	903.627
1809.15	892.288
1810.66	905.616
1812.16	906.32
1813.67	904.358
1815.18	909.062
1816.68	905.1
1818.19	917.804
1819.7	905.841
1821.2	900.546
1822.71	900.583
1824.21	909.954
1825.72	899.992
1827.22	894.696
1828.72	895.4
1830.23	913.438
1831.73	898.809
1833.23	898.179
1834.74	920.884
1836.24	902.255
1837.74	908.292
1839.24	902.33
1840.75	915.034
1842.25	913.071
1843.75	933.109
1845.25	913.146
1846.75	901.184
1848.25	914.555
1849.75	915.259
1851.25	898.63
1852.75	892.001
1854.25	907.372
1855.75	912.076
1857.25	898.78
1858.75	912.818
1860.24	915.522
1861.74	898.893
1863.24	907.597
1864.74	896.968
1866.23	900.339
1867.73	905.71
1869.23	920.414
1870.72	901.118
1872.22	902.489
1873.71	901.193
1875.21	901.898
1876.7	908.602
1878.2	908.639
1879.69	903.344
1881.19	891.381
1882.68	898.752
1884.18	890.79
1885.67	897.494
1887.16	911.531
1888.66	894.902
1890.15	929.607
1891.64	905.644
1893.13	921.682
1894.62	902.386
1896.11	911.757
1897.61	915.794
1899.1	905.165
1900.59	917.869
1902.08	921.24
1903.57	916.611
1905.06	893.982
1906.55	918.02
1908.04	913.391
1909.53	920.761
1911.02	906.132
1912.5	930.837
1913.99	920.874
1915.48	908.912
1916.97	928.949
1918.46	902.32
1919.94	931.024
1921.43	921.062
1922.92	915.099
1924.4	910.47
1925.89	941.175
1927.37	921.879
1928.86	922.583
1930.34	909.954
1931.83	903.325
1933.31	910.696
1934.8	912.067
1936.28	915.438
1937.77	912.142
1939.25	915.513
1940.73	934.217
1942.22	922.254
1943.7	904.959
1945.18	892.996
1946.66	916.367
1948.14	925.071
1949.63	907.109
1951.11	912.48
1952.59	907.851
1954.07	937.888
1955.55	906.592
1957.03	899.963
1958.51	946.668
1959.99	928.038
1961.47	912.743
1962.95	923.447
1964.43	938.818
1965.91	910.189
1967.39	918.226
1968.86	900.264
1970.34	900.301
1971.82	929.672
1973.3	929.71
1974.77	922.414
1976.25	912.452
1977.73	902.489
1979.2	918.527
1980.68	921.231
1982.15	931.935
1983.63	926.639
1985.1	935.344
1986.58	932.048
1988.05	925.419
1989.53	919.456
1991	922.827
1992.47	894.865
1993.95	931.569
1995.42	901.606
1996.89	901.644
1998.37	892.348
1999.84	914.386
2001.31	927.09
2002.78	917.128
2004.25	905.165
2005.73	918.536
2007.2	911.24
2008.67	905.278
2010.14	925.982
2011.61	924.02
2013.08	932.057
2014.55	918.761
2016.02	932.132
2017.49	905.503
2018.96	920.207
2020.42	916.245
2021.89	902.949
2023.36	920.32
2024.83	939.024
2026.3	920.395
2027.76	903.766
2029.23	937.137
2030.7	920.508
2032.16	927.212
2033.63	919.25
2035.09	932.62
2036.56	930.658
2038.03	913.362
2039.49	941.4
2040.96	906.771
2042.42	922.142
2043.88	924.179
2045.35	922.217
2046.81	911.588
2048.28	920.292
2049.74	902.329
2051.2	916.367
2052.67	917.071
2054.13	922.442
2055.59	929.813
2057.05	919.184
2058.51	946.555
2059.97	890.592
2061.43	919.297
2062.9	932.001
2064.36	920.705
2065.82	918.076
2067.28	918.78
2068.74	916.151
2070.2	912.189
2071.65	934.226
2073.11	924.93
2074.57	925.635
2076.03	926.339
2077.49	922.376
2078.95	913.747
2080.4	915.785
2081.86	937.822
2083.32	902.527
2084.78	917.897
2086.23	921.268
2087.69	922.639
2089.15	918.01
2090.6	913.381
2092.05	922.085
2093.51	925.456
2094.97	906.827
2096.42	904.865
2097.87	916.902
2099.33	904.94
2100.78	912.311
2102.24	908.348
2103.69	895.052
2105.14	882.423
2106.6	908.461
2108.05	915.165
2109.5	914.536
2110.95	883.907
2112.4	882.611
2113.86	920.649
2115.31	908.019
2116.76	919.39
2118.21	906.095
2119.66	900.799
2121.11	884.17
2122.56	886.874
2124.01	902.245
2125.46	913.616
2126.91	895.653
2128.35	906.357
2129.8	902.395
2131.25	892.433
2132.7	890.47
2134.15	909.841
2135.59	907.879
2137.04	913.916
2138.49	909.287
2139.94	892.658
2141.38	910.695
2142.83	897.4
2144.27	899.437
2145.72	906.808
2147.16	908.179
2148.61	912.883
2150.05	911.588
2151.5	885.625
2152.94	903.663
2154.39	905.7
2155.83	895.071
2157.27	899.109
2158.72	903.813
2160.16	898.517
2161.6	895.221
2163.05	913.259
2164.49	909.296
2165.93	912.667
2167.37	914.705
2168.81	891.409
2170.26	904.78
2171.7	913.484
2173.14	920.855
2174.58	919.559
2176.02	930.93
2177.46	908.301
2178.9	927.005
2180.34	914.376
2181.77	910.414
2183.21	914.451
2184.65	916.489
2186.09	915.193
2187.53	917.897
2188.97	927.268
2190.4	901.972
2191.84	910.01
2193.28	900.714
2194.71	912.085
2196.15	920.123
2197.59	882.16
2199.02	908.865
2200.46	904.902
2201.89	922.273
2203.33	899.644
2204.76	905.015
2206.2	897.052
2207.63	887.756
2209.07	902.461
2210.5	922.498
2211.93	886.536
2213.37	898.573
2214.8	902.611
2216.23	905.982
2217.67	902.686
2219.1	900.724
2220.53	877.428
2221.96	883.465
2223.39	900.17
2224.82	875.541
2226.26	868.911
2227.69	886.949
2229.12	872.32
2230.55	878.357
2231.98	867.062
2233.41	873.099
2234.84	879.803
2236.26	883.174
2237.69	886.545
2239.12	880.583
2240.55	864.62
2241.98	865.325
2243.41	872.695
2244.83	884.066
2246.26	859.437
2247.69	872.808
2249.11	855.512
2250.54	864.883
2251.97	875.587
2253.39	861.625
2254.82	872.996
2256.24	867.7
2257.67	888.404
2259.09	863.775
2260.52	873.146
2261.94	881.184
2263.37	872.555
2264.79	866.592
2266.22	867.296
2267.64	881.334
2269.06	879.371
2270.49	883.409
2271.91	864.78
2273.33	878.818
2274.75	878.188
2276.18	872.226
2277.59	863.597
2279.02	876.968
2280.44	869.005
2281.86	874.376
2283.28	849.747
2284.7	877.785
2286.12	869.822
2287.54	882.526
2288.96	871.231
2290.38	869.935
2291.8	880.639
2293.22	870.677
2294.63	879.381
2296.05	836.752
2297.47	868.789
2298.89	872.16
2300.31	876.864
2301.72	877.569
2303.14	876.273
2304.56	878.977
2305.97	869.681
2307.39	889.052
2308.81	905.756
2310.22	883.127
2311.64	879.165
2313.05	893.869
2314.47	882.573
2315.88	877.278
2317.3	878.648
2318.71	884.686
2320.12	875.39
2321.54	884.094
2322.95	894.132
2324.36	900.836
2325.78	870.874
2327.19	892.911
2328.6	898.282
2330.01	870.986
2331.43	903.024
2332.84	879.062
2334.25	887.099
2335.66	894.47
2337.07	913.841
2338.48	901.878
2339.89	875.249
2341.3	901.954
2342.71	887.991
2344.12	874.695
2345.53	900.066
2346.94	900.771
2348.35	876.808
2349.76	887.512
2351.17	881.55
2352.57	871.587
2353.98	878.292
2355.39	877.662
2356.8	858.367
2358.2	875.071
2359.61	859.775
2361.02	870.479
2362.42	879.184
2363.83	881.221
2365.23	857.925
2366.64	881.963
2368.04	868.001
2369.45	860.038
2370.85	855.409
2372.26	890.113
2373.66	870.817
2375.07	859.522
2376.47	878.226
2377.87	886.93
2379.28	880.301
2380.68	859.005
2382.08	857.043
2383.49	858.414
2384.89	862.451
2386.29	871.155
2387.69	863.193
2389.09	867.231
2390.49	870.601
2391.9	858.639
2393.3	854.677
2394.7	875.381
2396.1	874.085
2397.5	858.789
2398.9	862.16
2400.29	832.864
2401.69	879.569
2403.09	844.939
2404.49	850.31
2405.89	879.681
2407.29	843.719
2408.69	859.756
2410.08	863.794
2411.48	868.498
2412.88	872.536
2414.28	850.573
2415.67	851.277
2417.07	865.982
2418.47	848.019
2419.86	863.39
2421.26	870.761
2422.65	876.799
2424.05	864.836
2425.44	847.54
2426.84	864.245
2428.23	872.949
2429.62	851.653
2431.02	882.357
2432.41	875.728
2433.81	849.766
2435.2	840.47
2436.59	877.174
2437.98	864.545
2439.38	865.916
2440.77	863.287
2442.16	868.658
2443.55	879.362
2444.94	866.066
2446.34	884.104
2447.73	870.141
2449.12	878.846
2450.51	864.216
2451.9	889.587
2453.29	878.292
2454.68	869.662
2456.07	852.367
2457.46	869.737
2458.84	881.108
2460.23	875.813
2461.62	888.517
2463.01	882.554
2464.4	879.925
2465.78	880.63
2467.17	870.667
2468.56	904.038
2469.95	898.742
2471.33	901.446
2472.72	896.151
2474.1	882.855
2475.49	888.226
2476.88	888.93
2478.26	898.968
2479.65	887.005
2481.03	897.709
2482.42	888.414
2483.8	886.451
2485.19	900.489
2486.57	899.193
2487.95	849.897
2489.34	882.601
2490.72	871.306
2492.1	878.676
2493.49	898.714
2494.87	866.085
2496.25	880.122
2497.63	900.827
2499.01	899.531
2500.39	877.568
2501.77	899.606
2503.16	880.977
2504.54	896.348
2505.92	882.385
2507.3	889.756
2508.68	884.461
2510.06	890.498
2511.44	885.202
2512.81	883.24
2514.19	903.944
2515.57	879.315
2516.95	875.352
2518.33	886.057
2519.71	888.094
2521.08	884.799
2522.46	888.836
2523.84	864.874
2525.22	860.911
2526.59	879.615
2527.97	870.32
2529.35	863.024
2530.72	890.395
2532.1	879.099
2533.47	849.137
2534.85	858.507
2536.22	879.878
2537.6	866.582
2538.97	882.62
2540.35	856.658
2541.72	849.362
2543.09	888.066
2544.47	880.104
2545.84	865.475
2547.21	865.512
2548.59	882.216
2549.96	869.587
2551.33	870.958
2552.7	862.329
2554.08	884.367
2555.45	889.737
2556.82	885.108
2558.19	884.479
2559.56	870.517
2560.93	881.221
2562.3	870.592
2563.67	877.963
2565.04	868
2566.41	876.038
2567.78	844.742
2569.15	888.78
2570.52	899.484
2571.89	871.521
2573.25	882.892
2574.62	874.263
2575.99	858.301
2577.36	859.672
2578.73	871.043
2580.09	860.414
2581.46	877.784
2582.83	895.155
2584.19	901.193
2585.56	900.564
2586.93	912.601
2588.29	885.972
2589.66	874.676
2591.02	906.714
2592.39	862.085
2593.75	881.456
2595.12	908.16
2596.48	899.531
2597.84	880.235
2599.21	893.606
2600.57	906.31
2601.93	882.348
2603.3	879.719
2604.66	895.089
2606.02	912.46
2607.39	895.831
2608.75	896.536
2610.11	900.573
2611.47	903.277
2612.83	904.648
2614.19	893.352
2615.55	897.39
2616.91	903.428
2618.27	888.132
2619.63	913.503
2620.99	894.874
2622.35	909.578
2623.71	906.949
2625.07	910.32
2626.43	912.357
2627.79	903.728
2629.15	899.766
2630.51	903.803
2631.86	898.507
2633.22	895.878
2634.58	903.916
2635.94	901.953
2637.29	891.991
2638.65	918.029
2640.01	905.399
2641.36	923.437
2642.72	910.808
2644.08	908.845
2645.43	912.216
2646.79	872.254
2648.14	903.625
2649.49	915.329
2650.85	918.366
2652.2	902.404
2653.56	909.775
2654.91	907.146
2656.26	931.183
2657.62	910.554
2658.97	917.925
2660.32	897.296
2661.68	906.667
2663.03	913.371
2664.38	908.075
2665.73	876.113
2667.09	878.817
2668.44	895.521
2669.79	892.226
2671.14	916.93
2672.49	906.301
2673.84	894.338
2675.19	894.376
2676.54	902.413
2677.89	897.118
2679.24	903.155
2680.59	882.526
2681.94	911.23
2683.29	890.601
2684.63	896.639
2685.98	898.676
2687.33	888.714
2688.68	900.085
2690.03	877.456
2691.37	898.16
2692.72	898.864
2694.07	906.902
2695.41	882.272
2696.76	912.31
2698.11	913.681
2699.45	913.719
2700.8	910.423
2702.14	905.794
2703.49	901.165
2704.83	903.202
2706.18	879.906
2707.52	880.611
2708.87	887.315
2710.21	882.686
2711.55	895.39
2712.9	892.761
2714.24	906.132
2715.58	911.503
2716.93	912.873
2718.27	892.911
2719.61	891.615
2720.95	882.986
2722.3	881.69
2723.64	917.061
2724.98	908.432
2726.32	895.803
2727.66	909.841
2729	900.545
2730.34	915.249
2731.68	899.953
2733.02	907.991
2734.36	904.028
2735.7	912.733
2737.04	900.104
2738.38	898.808
2739.72	896.179
2741.06	892.216
2742.39	906.254
2743.73	920.291
2745.07	903.662
2746.41	895.7
2747.74	913.737
2749.08	908.441
2750.42	897.146
2751.75	940.517
2753.09	921.221
2754.43	921.258
2755.76	936.629
2757.1	928.667
2758.43	928.038
2759.77	877.409
2761.1	920.78
2762.44	938.15
2763.77	911.521
2765.11	918.225
2766.44	932.93
2767.78	935.634
2769.11	902.338
2770.44	922.376
2771.78	931.08
2773.11	923.784
2774.44	920.488
2775.77	919.193
2777.11	923.897
2778.44	903.934
2779.77	915.305
2781.1	918.01
2782.43	929.38
2783.76	908.085
2785.09	896.122
2786.42	918.16
2787.76	924.864
2789.08	916.902
2790.41	913.606
2791.74	922.977
2793.07	937.014
2794.4	938.385
2795.73	909.089
2797.06	923.127
2798.39	917.164
2799.72	928.535
2801.04	911.906
2802.37	904.61
2803.7	899.315
2805.03	918.686
2806.35	932.723
2807.68	925.427
2809.01	922.798
2810.33	896.836
2811.66	924.873
2812.98	921.578
2814.31	925.615
2815.63	948.986
2816.96	915.69
2818.28	941.728
2819.61	939.099
2820.94	923.803
2822.26	943.841
2823.58	953.878
2824.91	933.916
2826.23	912.62
2827.55	930.657
2828.88	947.362
2830.2	926.733
2831.52	932.77
2832.84	920.808
2834.16	926.178
2835.49	925.549
2836.81	930.254
2838.13	939.624
2839.45	934.329
2840.77	934.366
2842.09	931.071
2843.41	923.775
2844.73	919.146
2846.05	906.517
2847.37	910.554
2848.69	934.592
2850.01	927.296
2851.33	952.667
2852.65	924.704
2853.97	943.409
2855.29	946.113
2856.6	954.15
2857.92	940.188
2859.24	912.225
2860.56	919.596
2861.87	928.301
2863.19	950.338
2864.51	954.376
2865.82	928.413
2867.14	934.451
2868.46	949.822
2869.77	946.526
2871.09	951.23
2872.4	944.601
2873.72	958.639
2875.03	936.009
2876.35	953.38
2877.66	950.085
2878.98	956.789
2880.29	930.826
2881.6	938.864
2882.92	953.568
2884.23	936.272
2885.54	961.643
2886.86	958.348
2888.17	957.052
2889.48	966.423
2890.79	955.127
2892.1	969.164
2893.42	963.202
2894.73	969.239
2896.04	978.61
2897.35	941.981
2898.66	963.352
2899.97	949.39
2901.28	960.761
2902.59	943.465
2903.9	966.169
2905.21	968.207
2906.52	968.244
2907.83	944.948
2909.14	976.319
2910.45	965.69
2911.76	976.394
2913.06	1003.77
2914.37	980.47
2915.68	957.174
2916.99	969.211
2918.29	963.274
2919.6	971.641
2920.91	970.649
2922.21	975.31
2923.52	954.917
2924.83	954.593
2926.13	973.716
2927.44	948.065
2928.74	959.601
2930.05	956.212
2931.35	973.934
2932.66	982.887
2933.96	966.769
2935.27	968.941
2936.57	959.305
2937.88	990.567
2939.18	975.235
2940.48	970.879
2941.79	972.418
2943.09	977.812
2944.39	960.458
2945.69	981.169
2946.99	962.31
2948.3	961.85
2949.6	949.373
2950.9	976.498
2952.2	970.015
2953.5	989.438
2954.8	963.976
2956.1	962.377
2957.4	968.649
2958.7	972.396
2960	962.103
2961.3	952.302
2962.6	953.597
2963.9	952.345
2965.2	961.12
2966.5	946.053
2967.8	961.527
2969.1	949.867
2970.4	962.316
2971.69	955.429
2972.99	951.824
2974.29	944.134
2975.59	941.459
2976.88	961.972
2978.18	942.337
2979.48	959.954
2980.77	961.384
2982.07	945.909
2983.36	944.355
2984.66	941.235
2985.95	945.802
2987.25	943.936
2988.55	946.368
2989.84	947.319
2991.13	927.336
2992.43	941.87
2993.72	940.689
2995.02	936.314
2996.31	927.416
2997.6	943.516
2998.9	947.07
3000.19	941.849
3001.48	933.398
3002.77	920.45
3004.07	937.316
3005.36	934.18
3006.65	918.978
3007.94	942.223
3009.23	935.289
3010.53	938.593
3011.82	931.209
3013.11	935.841
3014.4	917.26
3015.69	933.405
3016.98	927.464
3018.27	938.837
3019.56	931.393
3020.85	923.809
3022.13	931.234
3023.42	929.689
3024.71	929.211
3026	948.697
3027.29	936.392
3028.58	938.244
3029.86	939.19
3031.15	936.451
3032.44	936.532
3033.73	939.411
3035.01	937.119
3036.3	940.138
3037.58	925.405
3038.87	921.526
3040.16	938.993
3041.44	942.473
3042.73	924.532
3044.01	933.586
3045.3	927.278
3046.58	913.284
3047.87	917.811
3048.04	918.75
3049.33	934.034
3050.62	935.318
3051.91	935.936
3053.2	953.887
3054.49	933.171
3055.77	943.789
3057.06	940.406
3058.35	914.357
3059.64	932.308
3060.93	954.926
3062.22	914.876
3063.51	927.494
3064.79	924.112
3066.08	920.063
3067.37	919.347
3068.66	901.298
3069.94	912.582
3071.23	940.533
3072.52	932.484
3073.8	941.102
3075.09	921.719
3076.37	937.67
3077.66	927.621
3078.94	930.905
3080.23	936.856
3081.51	930.14
3082.8	937.425
3084.08	918.709
3085.37	927.326
3086.65	939.277
3087.94	914.562
3089.22	929.179
3090.5	943.797
3091.78	937.081
3093.07	914.365
3094.35	928.983
3095.63	917.601
3096.91	916.885
3098.2	936.836
3099.48	910.12
3100.76	946.738
3102.04	954.689
3103.32	935.973
3104.6	929.924
3105.88	938.541
3107.16	925.826
3108.44	945.11
3109.72	950.394
3111	915.678
3112.28	944.963
3113.56	919.58
3114.84	924.198
3116.12	936.815
3117.4	944.766
3118.68	950.717
3119.96	926.002
3121.23	927.953
3122.51	944.57
3123.79	938.521
3125.07	928.472
3126.34	931.09
3127.62	932.374
3128.9	946.991
3130.18	942.942
3131.45	947.56
3132.73	958.844
3134	930.128
3135.28	942.079
3136.55	940.03
3137.83	955.315
3139.1	965.932
3140.38	945.883
3141.65	935.834
3142.93	924.452
3144.2	931.736
3145.47	950.353
3146.75	942.304
3148.02	944.255
3149.29	934.206
3150.57	939.49
3151.84	943.441
3153.11	952.059
3154.39	931.343
3155.66	950.628
3156.93	959.245
3158.2	951.863
3159.47	945.814
3160.74	931.098
3162.01	953.716
3163.28	958.333
3164.56	949.617
3165.83	944.235
3167.1	960.853
3168.37	958.803
3169.64	950.754
3170.91	944.039
3172.18	961.99
3173.44	944.607
3174.71	962.558
3175.98	968.509
3177.25	963.793
3178.52	969.078
3179.79	948.362
3181.05	956.313
3182.32	968.264
3183.59	961.548
3184.86	943.499
3186.12	946.116
3187.39	946.067
3188.66	953.352
3189.92	954.636
3191.19	965.92
3192.45	937.204
3193.72	951.822
3194.98	925.106
3196.25	953.724
3197.51	954.342
3198.78	930.959
3200.04	958.91
3201.31	943.528
3202.57	949.479
3203.84	947.429
3205.1	942.047
3206.36	949.998
3207.63	937.949
3208.89	931.9
3210.15	933.851
3211.41	927.135
3212.68	942.419
3213.94	957.704
3215.2	940.988
3216.46	953.605
3217.72	936.89
3218.99	932.841
3220.25	943.458
3221.51	925.409
3222.77	947.36
3224.03	936.644
3225.29	934.595
3226.55	937.88
3227.81	944.497
3229.07	935.115
3230.33	924.399
3231.59	927.017
3232.84	941.634
3234.1	936.252
3235.36	924.203
3236.62	938.154
3237.88	939.438
3239.13	912.722
3240.39	925.34
3241.65	931.291
3242.91	931.908
3244.16	942.526
3245.42	948.477
3246.68	927.094
3247.93	929.045
3249.19	911.663
3250.45	951.614
3251.7	921.565
3252.96	936.182
3254.21	926.8
3255.47	945.418
3256.72	972.035
3257.98	951.319
3259.23	939.27
3260.49	929.221
3261.74	941.172
3262.99	925.123
3264.25	937.741
3265.5	930.358
3266.75	918.309
3268	932.26
3269.26	930.878
3270.51	926.829
3271.76	939.446
3273.02	924.731
3274.27	912.015
3275.52	927.299
3276.77	944.583
3278.02	937.868
3279.27	932.485
3280.52	944.436
3281.77	925.054
3283.02	927.005
3284.27	939.622
3285.52	931.573
3286.77	941.524
3288.02	942.808
3289.27	924.759
3290.52	941.377
3291.77	934.661
3293.02	927.945
3294.27	960.563
3295.51	955.18
3296.76	942.465
3298.01	929.082
3299.26	936.367
3300.5	957.651
3301.75	950.268
3303	942.886
3304.24	941.504
3305.49	945.455
3306.74	936.739
3307.99	934.69
3309.23	937.974
3310.48	967.258
3311.72	935.209
3312.97	932.494
3314.21	942.444
3315.46	950.395
3316.7	928.346
3317.94	950.964
3319.19	940.915
3320.43	934.199
3321.68	934.15
3322.92	929.434
3324.16	936.719
3325.41	928.003
3326.65	915.954
3327.89	921.238
3329.13	925.856
3330.38	925.807
3331.62	930.424
3332.86	923.042
3334.1	953.659
3335.34	916.277
3336.58	933.561
3337.83	932.845
3339.07	936.13
3340.31	932.747
3341.55	901.365
3342.79	937.316
3344.03	935.933
3345.27	915.218
3346.51	926.502
3347.75	915.12
3348.99	905.07
3350.22	925.688
3351.46	936.306
3352.7	940.257
3353.94	908.874
3355.18	927.492
3356.42	917.443
3357.65	919.394
3358.89	934.678
3360.13	929.962
3361.36	921.246
3362.6	911.864
3363.84	919.815
3365.07	911.099
3366.31	899.05
3367.55	911.001
3368.78	933.619
3370.02	901.57
3371.25	892.854
3372.49	902.805
3373.72	910.756
3374.96	924.707
3376.19	931.991
3377.43	897.942
3378.66	913.893
3379.89	895.844
3381.13	898.461
3382.36	905.079
3383.59	910.363
3384.83	913.647
3386.06	927.598
3387.29	901.549
3388.52	910.167
3389.76	911.451
3390.99	896.069
3392.22	900.686
3393.45	895.304
3394.68	899.921
3395.91	911.872
3397.15	893.157
3398.38	883.774
3399.61	928.392
3400.84	921.676
3402.07	906.96
3403.3	914.245
3404.53	873.529
3405.76	898.813
3406.99	912.097
3408.21	900.048
3409.44	914.666
3410.67	897.95
3411.9	907.901
3413.13	903.852
3414.36	901.136
3415.58	941.754
3416.81	882.371
3418.04	898.989
3419.27	904.273
3420.49	895.558
3421.72	914.842
3422.95	901.459
3424.17	919.41
3425.4	908.695
3426.62	913.979
3427.85	915.93
3429.08	905.881
3430.3	926.498
3431.53	916.449
3432.75	913.734
3433.98	893.018
3435.2	905.635
3436.42	901.586
3437.65	898.204
3438.87	906.821
3440.1	910.772
3441.32	910.723
3442.54	904.008
3443.76	917.292
3444.99	921.909
3446.21	929.194
3447.43	894.478
3448.66	907.096
3449.88	907.047
3451.1	910.997
3452.32	930.282
3453.54	912.899
3454.76	904.184
3455.98	911.468
3457.21	921.419
3458.43	904.036
3459.65	907.987
3460.87	920.605
3462.09	926.556
3463.3	913.84
3464.53	885.791
3465.74	899.075
3466.96	905.026
3468.18	918.977
3469.4	883.595
3470.62	911.546
3471.84	892.163
3473.06	900.781
3474.27	906.065
3475.49	882.016
3476.71	919.3
3477.93	920.584
3479.14	899.869
3480.36	885.153
3481.58	911.104
3482.79	913.055
3484.01	907.672
3485.22	905.623
3486.44	884.908
3487.66	875.525
3488.87	896.81
3490.09	902.094
3491.3	875.378
3492.52	891.996
3493.73	893.28
3494.95	883.231
3496.16	877.182
3497.37	868.466
3498.59	880.417
3499.8	879.035
3501.01	880.985
3502.23	881.603
3503.44	852.887
3504.65	896.838
3505.87	868.789
3507.08	863.407
3508.29	854.691
3509.5	871.309
3510.71	869.926
3511.93	877.877
3513.14	867.161
3514.35	850.446
3515.56	857.063
3516.77	869.681
3517.98	834.298
3519.19	843.583
3520.4	838.2
3521.61	860.151
3522.82	853.435
3524.03	834.053
3525.24	824.004
3526.45	847.288
3527.66	838.573
3528.86	828.523
3530.07	843.808
3531.28	829.092
3532.49	835.043
3533.7	846.327
3534.9	849.611
3536.11	834.229
3537.32	834.18
3538.53	819.464
3539.73	823.415
3540.94	832.033
3542.15	837.984
3543.35	823.935
3544.56	828.552
3545.76	841.17
3546.97	819.787
3548.18	835.072
3549.38	829.689
3550.59	829.64
3551.79	821.591
3553	817.542
3554.2	834.16
3555.4	840.111
3556.61	830.061
3557.81	811.346
3559.02	808.63
3560.22	813.248
3561.42	851.199
3562.62	811.816
3563.83	825.1
3565.03	823.051
3566.23	817.669
3567.44	818.953
3568.64	816.237
3569.84	801.522
3571.04	808.806
3572.24	834.757
3573.44	808.708
3574.64	799.992
3575.84	801.276
3577.04	826.561
3578.25	829.845
3579.45	817.796
3580.65	825.08
3581.84	829.031
3583.04	830.315
3584.24	816.266
3585.44	810.884
3586.64	826.835
3587.84	791.452
3589.04	806.737
3590.24	830.687
3591.44	812.638
3592.63	843.923
3593.83	808.54
3595.03	805.158
3596.23	829.775
3597.42	830.393
3598.62	819.011
3599.82	820.295
3601.01	816.246
3602.21	834.863
3603.41	821.481
3604.6	808.099
3605.8	824.049
3606.99	803.334
3608.19	807.285
3609.38	821.236
3610.58	813.187
3611.77	827.804
3612.97	819.088
3614.16	823.706
3615.36	833.657
3616.55	837.608
3617.74	807.559
3618.94	811.51
3620.13	840.794
3621.32	805.412
3622.52	830.029
3623.71	798.647
3624.9	816.598
3626.09	802.549
3627.29	820.5
3628.48	819.784
3629.67	828.401
3630.86	808.352
3632.05	786.303
3633.24	794.254
3634.44	810.205
3635.63	806.823
3636.82	798.107
3638.01	804.058
3639.2	804.009
3640.39	777.293
3641.58	805.911
3642.77	779.862
3643.95	799.146
3645.15	784.43
3646.33	773.714
3647.52	775.665
3648.71	798.283
3649.9	788.234
3651.09	790.185
3652.28	794.136
3653.46	786.753
3654.65	780.038
3655.84	781.322
3657.03	775.939
3658.21	782.557
3659.4	762.508
3660.58	770.459
3661.77	777.743
3662.96	781.694
3664.14	779.645
3665.33	773.596
3666.52	774.214
3667.7	774.164
3668.89	768.782
3670.07	781.4
3671.25	764.017
3672.44	766.635
3673.62	763.919
3674.81	760.537
3675.99	771.821
3677.18	759.772
3678.36	741.723
3679.54	773.674
3680.73	748.958
3681.91	746.909
3683.09	752.86
3684.27	761.477
3685.46	764.095
3686.64	758.046
3687.82	736.664
3689	743.281
3690.19	757.232
3691.37	749.183
3692.55	755.134
3693.73	757.752
3694.91	709.702
3696.09	725.653
3697.27	744.271
3698.45	746.889
3699.63	733.506
3700.81	742.124
3701.99	740.075
3703.17	744.692
3704.35	755.977
3705.53	748.594
3706.71	737.212
3707.89	739.829
3709.06	744.447
3710.24	742.398
3711.42	742.349
3712.6	742.966
3713.78	748.917
3714.95	754.868
3716.13	762.819
3717.31	741.437
3718.48	735.388
3719.66	732.672
3720.84	729.956
3722.01	749.907
3723.19	738.525
3724.37	738.476
3725.54	739.093
3726.72	743.044
3727.89	760.995
3729.07	734.946
3730.24	727.564
3731.42	742.181
3732.59	741.465
3733.77	736.083
3734.94	742.701
3736.12	743.985
3737.29	752.603
3738.46	749.887
3739.64	727.838
3740.81	756.455
3741.98	751.073
3743.15	765.69
3744.33	731.641
3745.5	736.259
3746.67	754.877
3747.84	757.494
3749.02	746.112
3750.19	757.396
3751.36	732.014
3752.53	747.965
3753.7	736.582
3754.87	728.533
3756.04	747.817
3757.21	755.768
3758.38	726.386
3759.55	747.003
3760.72	754.954
3761.89	744.239
3763.06	748.19
3764.23	753.474
3765.4	736.758
3766.57	737.376
3767.74	739.993
3768.91	735.944
3770.08	743.229
3771.24	719.179
3772.41	764.464
3773.58	730.415
3774.75	740.366
3775.91	740.316
3777.08	728.267
3778.25	739.552
3779.41	733.503
3780.58	718.12
3781.75	748.738
3782.91	724.689
3784.08	727.306
3785.25	733.924
3786.41	725.208
3787.58	740.492
3788.74	735.777
3789.91	741.728
3791.07	723.679
3792.24	712.296
3793.4	729.58
3794.57	719.531
3795.73	715.482
3796.89	730.766
3798.06	716.717
3799.22	721.335
3800.38	735.953
3801.55	729.237
3802.71	714.521
3803.87	721.805
3805.03	707.756
3806.2	701.041
3807.36	710.325
3808.52	713.276
3809.68	706.227
3810.84	717.511
3812.01	700.795
3813.17	692.746
3814.33	699.364
3815.49	697.315
3816.65	693.932
3817.81	711.216
3818.97	689.834
3820.13	713.785
3821.29	705.069
3822.45	683.02
3823.61	684.971
3824.77	672.255
3825.93	696.206
3827.09	693.491
3828.24	688.775
3829.4	703.392
3830.56	684.01
3831.72	685.961
3832.88	699.245
3834.04	692.529
3835.19	697.814
3836.35	681.765
3837.51	696.382
3838.66	680.333
3839.82	693.617
3840.98	690.902
3842.13	696.853
3843.29	701.47
3844.45	703.421
3845.6	699.372
3846.76	681.99
3847.91	695.941
3849.07	701.892
3850.22	683.842
3851.38	696.46
3852.53	688.411
3853.69	717.029
3854.84	689.646
3856	677.597
3857.15	692.215
3858.3	680.166
3859.46	691.45
3860.61	695.401
3861.76	684.018
3862.92	686.636
3864.07	693.254
3865.22	689.205
3866.37	687.155
3867.53	682.44
3868.68	671.057
3869.83	683.675
3870.98	696.959
3872.13	690.243
3873.28	689.528
3874.43	678.145
3875.59	689.43
3876.74	700.714
3877.89	669.998
3879.04	697.949
3880.19	684.567
3881.34	687.851
3882.49	672.468
3883.64	665.753
3884.79	689.704
3885.93	700.321
3887.08	680.939
3888.23	679.556
3889.38	680.841
3890.53	675.458
3891.68	679.409
3892.83	675.36
3893.97	699.311
3895.12	673.929
3896.27	692.546
3897.41	683.831
3898.56	698.448
3899.71	689.732
3900.86	690.35
3902	691.634
3903.15	683.585
3904.29	698.203
3905.44	678.82
3906.59	687.438
3907.73	666.722
3908.88	697.34
3910.02	656.624
3911.17	691.908
3912.31	675.859
3913.46	691.144
3914.6	679.094
3915.75	671.712
3916.89	708.996
3918.03	682.947
3919.18	689.565
3920.32	653.516
3921.46	688.8
3922.61	692.084
3923.75	678.702
3924.89	679.986
3926.03	685.27
3927.18	667.221
3928.32	675.172
3929.46	667.123
3930.6	674.407
3931.74	667.025
3932.89	669.643
3934.03	681.594
3935.17	683.544
3936.31	663.495
3937.45	662.78
3938.59	659.397
3939.73	654.682
3940.87	665.966
3942.01	660.583
3943.15	671.868
3944.29	675.819
3945.43	668.436
3946.57	666.387
3947.71	657.671
3948.84	654.289
3949.98	656.24
3951.12	658.191
3952.26	648.808
3953.4	670.093
3954.54	669.377
3955.67	659.995
3956.81	687.279
3957.95	660.563
3959.09	653.847
3960.22	643.798
3961.36	641.083
3962.5	675.7
3963.63	665.651
3964.77	664.269
3965.9	644.886
3967.04	640.17
3968.18	648.121
3969.31	648.072
3970.45	659.357
3971.58	636.641
3972.72	641.258
3973.85	648.543
3974.99	634.494
3976.12	657.111
3977.25	652.395
3978.39	655.013
3979.52	653.631
3980.65	654.248
3981.79	658.866
3982.92	638.15
3984.05	652.101
3985.19	634.052
3986.32	636.003
3987.45	631.954
3988.58	649.238
3989.72	633.856
3990.85	658.473
3991.98	625.091
3993.11	646.375
3994.24	647.659
3995.37	646.944
3996.5	629.561
3997.64	639.512
3998.77	630.796
3999.9	631.414
