#Acq. time (s)=	15
#Accumulations=	4
#Range (cm-¹)=	50...4000
#Windows=	3
#Autofocus=	Off
#AutoExposure=	Off
#Spike filter=	Multiple accum.
#Delay time (s)=	0
#Binning=	1
#Readout mode=	Signal
#DeNoise=	Off
#ICS correction=	Off
#Dark correction=	Off
#Inst. Process=	Off
#Instrument=	LabRAM HR Evol
#Detector=	Syncerity OE
#Objective=	x100_VIS
#Grating=	600 (500nm)
#ND Filter=	5%
#Laser=	532nm_Edge
#Hole=	100.021
#Range=	Visible
#Project=	Omar
#Sample=	120523
#Site=	ap
#Title=	mz
#Remark=	5 laser intensity
#Date=	12.05.2023 17:28
#Acquired=	12.05.2023 17:28:58
51.0297	18.6667
52.8754	25.9488
54.7185	32.5642
56.5635	33.8463
58.406	33.1283
60.2502	41.0771
62.0919	59.0258
63.9355	72.9746
65.7765	87.59
67.6193	107.539
69.4595	121.488
71.3016	142.77
73.1412	164.052
74.9825	192
76.8214	193.949
78.662	219.231
80.5001	216.513
82.34	232.462
84.1774	249.744
86.0166	247.026
87.8532	260.975
89.6917	273.59
91.5276	259.539
93.3632	283.488
95.2006	263.437
97.0355	270.719
98.8721	277.334
100.706	277.95
102.54	279.232
104.376	287.18
106.209	294.463
108.041	301.078
109.876	297.027
111.708	290.309
113.542	286.258
115.373	286.206
117.204	292.822
119.036	294.77
120.867	292.053
122.697	294.668
124.526	297.283
126.357	306.565
128.186	282.514
130.014	279.796
131.845	285.745
133.672	286.361
135.5	305.643
137.327	291.591
139.155	300.873
140.982	288.822
142.807	296.104
144.633	306.72
146.46	296.002
148.285	308.617
150.11	314.566
151.934	325.848
153.757	303.13
155.583	287.079
157.406	303.028
159.229	310.31
161.051	305.592
162.873	311.541
164.697	312.823
166.518	317.438
168.339	299.387
170.159	302.002
171.98	319.951
173.799	315.9
175.619	304.515
177.44	303.797
179.259	315.079
181.077	317.028
182.895	318.977
184.713	313.592
186.53	314.208
188.347	304.156
190.164	314.105
191.98	316.054
193.796	298.669
195.612	315.951
197.427	313.9
199.242	314.516
201.059	314.464
202.873	321.08
204.686	318.362
206.5	316.311
208.313	314.926
210.126	316.208
211.938	315.49
213.75	313.439
215.562	305.388
217.373	320.67
219.184	314.619
220.993	313.234
222.803	323.183
224.613	316.465
226.422	322.414
228.232	317.696
230.04	312.978
231.849	325.593
233.657	318.875
235.465	312.824
237.272	314.106
239.079	316.721
240.886	328.67
242.693	321.286
244.497	314.568
246.302	309.85
248.108	312.465
249.913	336.414
251.717	341.029
253.521	322.978
255.325	327.594
257.127	321.542
258.93	326.158
260.733	319.44
262.535	313.389
264.338	330.004
266.137	334.619
267.939	323.901
269.74	321.85
271.541	324.466
273.341	341.081
275.139	317.697
276.939	334.312
278.738	330.927
280.537	326.209
282.334	318.825
284.132	319.44
285.93	317.389
287.728	326.671
289.523	325.953
291.32	326.569
293.117	328.517
294.911	327.133
296.707	333.082
298.502	331.03
300.295	319.646
302.09	329.594
303.885	332.21
305.677	318.825
307.47	330.107
309.264	322.056
311.055	336.672
312.848	336.62
314.64	336.569
316.43	335.184
318.222	333.133
320.011	337.082
321.802	333.697
323.593	330.313
325.381	342.262
327.171	341.544
328.958	338.826
330.748	333.441
332.535	336.723
334.323	329.339
336.109	327.954
337.897	329.903
339.685	328.518
341.47	333.8
343.257	343.082
345.041	329.698
346.827	344.98
348.611	343.595
350.397	339.544
352.18	351.493
353.962	321.442
355.747	348.724
357.529	322.006
359.312	351.954
361.094	326.57
362.877	327.185
364.658	326.467
366.44	323.083
368.22	341.032
369.999	340.98
371.781	328.262
373.56	344.878
375.34	350.827
377.119	333.442
378.896	338.057
380.676	338.006
382.453	340.622
384.23	341.237
386.009	343.186
387.785	345.801
389.561	337.083
391.338	345.699
393.113	341.647
394.888	352.263
396.665	341.545
398.439	347.494
400.213	343.442
401.988	338.725
403.761	350.673
405.534	328.622
407.306	327.904
409.081	344.52
410.852	343.802
412.624	352.417
414.395	342.366
416.167	335.648
417.938	342.263
419.708	346.879
421.477	341.494
423.249	351.443
425.018	334.725
426.786	344.007
428.555	339.956
430.323	346.571
432.092	340.52
433.86	357.135
435.627	347.084
437.393	339.033
439.16	338.982
440.926	345.597
442.691	356.879
444.458	338.161
446.223	346.11
447.988	344.725
449.752	346.008
451.516	339.956
453.28	345.905
455.043	342.52
456.806	354.469
458.568	353.085
460.33	351.033
462.092	343.649
463.854	348.931
465.615	346.213
467.378	349.495
469.138	370.11
470.899	354.726
472.658	354.008
474.418	377.29
476.177	351.239
477.936	357.188
479.694	357.803
481.452	366.418
483.21	347.034
484.966	348.983
486.723	348.265
488.48	370.88
490.236	360.162
491.992	361.444
493.748	367.393
495.503	352.675
497.258	353.957
499.013	349.906
500.768	361.188
502.522	349.803
504.276	376.419
506.029	352.368
507.78	350.983
509.533	352.932
511.285	356.881
513.037	358.829
514.789	348.778
516.54	358.06
518.289	354.676
520.04	363.958
521.791	360.573
523.541	372.522
525.29	369.137
527.04	359.753
528.787	365.035
530.536	352.983
532.284	360.932
534.032	366.881
535.778	370.83
537.525	367.445
539.272	360.061
541.019	366.009
542.763	367.291
544.509	362.573
546.255	353.856
548	365.804
549.743	371.753
551.488	381.702
553.232	361.651
554.974	382.933
556.718	374.215
558.462	360.163
560.203	372.779
561.945	365.394
563.688	367.343
565.428	351.292
567.169	364.574
568.911	361.189
570.65	371.805
572.391	352.42
574.129	374.369
575.869	371.651
577.609	372.933
579.346	364.882
581.085	367.497
582.822	365.446
584.56	359.395
586.296	356.01
588.034	375.959
589.771	373.908
591.506	380.523
593.243	365.805
594.978	351.087
596.714	363.036
598.447	364.318
600.183	356.934
601.916	366.216
603.651	369.498
605.383	381.446
607.117	368.062
608.849	398.011
610.582	371.959
612.313	364.575
614.044	364.524
615.776	372.472
617.507	364.421
619.238	374.37
620.968	366.985
622.699	359.601
624.428	388.216
626.156	383.498
627.886	384.114
629.614	373.396
631.342	383.344
633.071	371.293
634.797	396.575
636.526	384.524
638.252	388.473
639.978	385.755
641.705	373.704
643.431	378.319
645.155	366.268
646.88	384.883
648.606	380.832
650.33	384.781
652.053	386.729
653.779	382.012
655.502	382.627
657.224	381.242
658.946	377.858
660.67	377.807
662.392	381.755
664.113	396.371
665.834	390.319
667.556	379.602
669.277	382.217
670.997	381.499
672.716	384.114
674.435	370.73
676.156	352.679
677.875	380.627
679.593	387.909
681.311	375.192
683.029	383.14
684.746	385.089
686.465	381.704
688.182	388.987
689.898	382.269
691.614	379.551
693.33	397.499
695.045	389.448
696.76	384.064
698.475	367.346
700.189	393.961
701.904	404.577
703.619	375.192
705.333	399.807
707.046	381.09
708.759	381.038
710.471	380.32
712.183	394.936
713.895	387.551
715.606	367.5
717.317	381.449
719.028	395.397
720.739	382.68
722.449	381.295
724.159	395.91
725.868	389.192
727.578	394.475
729.286	391.09
730.995	375.039
732.703	371.654
734.409	384.936
736.117	384.218
737.824	393.5
739.531	390.782
741.237	399.398
742.944	384.013
744.65	376.629
746.355	387.911
748.061	378.526
749.766	394.475
751.468	379.09
753.173	389.706
754.877	401.655
756.581	385.603
758.284	383.552
759.987	394.167
761.688	381.45
763.39	390.065
765.092	406.014
766.794	404.629
768.496	393.245
770.195	393.86
771.896	395.142
773.596	395.758
775.296	383.04
776.994	391.655
778.694	390.27
780.393	394.219
782.092	398.168
783.788	388.117
785.487	402.732
787.185	378.014
788.882	383.296
790.578	386.578
792.274	375.86
793.971	381.809
795.666	392.425
797.362	382.373
799.057	379.655
800.751	393.604
802.446	384.22
804.138	392.835
805.833	387.45
807.527	402.066
809.219	387.348
810.912	385.297
812.605	395.245
814.296	396.528
815.989	389.143
817.679	383.758
819.371	371.04
821.06	392.989
822.752	394.271
824.441	397.553
826.131	398.169
827.822	399.451
829.51	397.4
831.199	404.015
832.887	386.63
834.576	399.913
836.262	403.861
837.951	392.477
839.637	382.426
841.323	409.041
843.01	395.656
844.695	394.938
846.382	390.887
848.066	394.836
849.753	396.118
851.436	387.4
853.122	421.349
854.805	407.298
856.488	386.58
858.173	400.528
859.855	378.477
861.539	385.093
863.221	397.041
864.902	404.323
866.585	394.272
868.266	394.888
869.946	406.17
871.628	396.785
873.308	391.401
874.987	388.016
876.668	395.965
878.347	409.247
880.026	382.529
881.704	397.811
883.384	389.76
885.061	402.375
886.739	389.657
888.418	390.939
890.094	404.221
891.771	382.837
893.447	392.119
895.122	392.734
896.799	400.016
898.475	392.632
900.149	405.247
901.824	385.196
903.498	393.145
905.174	387.093
906.847	391.042
908.52	393.658
910.193	380.94
911.866	384.889
913.538	381.504
915.212	399.453
916.883	388.735
918.555	397.35
920.226	385.299
921.896	386.581
923.567	391.863
925.237	394.479
926.907	399.761
928.576	395.043
930.245	386.325
931.914	396.94
933.584	409.556
935.253	404.171
936.92	395.453
938.588	399.402
940.255	404.684
941.922	419.966
943.589	381.915
945.255	390.53
946.921	397.812
948.587	399.761
950.252	399.71
951.917	398.325
953.582	399.607
955.244	396.889
956.909	402.838
958.572	397.454
960.236	396.069
961.899	410.684
963.562	386.633
965.225	389.249
966.887	394.531
968.549	395.146
970.211	388.428
971.872	397.71
973.531	385.659
975.192	401.608
976.852	397.557
978.512	388.839
980.172	385.454
981.831	404.736
983.489	386.685
985.148	399.967
986.806	407.249
988.464	388.531
990.122	391.147
991.778	404.429
993.435	391.711
995.092	403.659
996.749	400.941
998.404	388.89
1000.06	390.839
1001.72	402.788
1003.37	404.07
1005.02	399.352
1006.68	391.301
1008.33	393.916
1009.99	407.198
1011.64	407.147
1013.29	385.762
1014.95	391.044
1016.6	381.66
1018.25	407.609
1019.9	389.557
1021.55	395.506
1023.2	396.122
1024.85	416.07
1026.51	399.352
1028.16	405.968
1029.81	391.917
1031.46	391.199
1033.1	399.147
1034.75	384.43
1036.4	396.378
1038.05	394.327
1039.7	407.609
1041.34	402.224
1042.99	400.84
1044.64	384.789
1046.29	385.404
1047.93	401.353
1049.58	379.302
1051.22	391.25
1052.87	392.532
1054.51	395.815
1056.16	404.43
1057.8	400.379
1059.45	396.327
1061.09	396.943
1062.73	392.892
1064.38	390.174
1066.02	418.789
1067.66	414.071
1069.3	404.687
1070.95	386.635
1072.59	405.251
1074.23	407.2
1075.87	399.815
1077.51	405.764
1079.15	407.712
1080.79	398.328
1082.43	397.61
1084.07	397.559
1085.71	402.841
1087.35	398.123
1088.99	410.072
1090.62	408.687
1092.26	399.302
1093.9	407.251
1095.53	389.2
1097.17	392.482
1098.81	387.098
1100.44	389.046
1102.08	402.328
1103.71	402.944
1105.35	388.892
1106.99	404.841
1108.62	403.457
1110.25	392.739
1111.89	401.354
1113.52	398.636
1115.15	395.918
1116.79	403.2
1118.42	392.483
1120.05	395.765
1121.68	397.713
1123.31	408.995
1124.95	395.611
1126.58	393.56
1128.21	399.508
1129.84	391.457
1131.47	400.739
1133.1	398.688
1134.73	391.97
1136.36	389.252
1137.98	393.201
1139.61	391.15
1141.24	395.765
1142.87	408.38
1144.5	407.663
1146.12	390.278
1147.75	401.56
1149.38	402.175
1151	414.124
1152.63	404.74
1154.26	415.355
1155.88	421.304
1157.51	408.586
1159.13	423.868
1160.76	390.483
1162.38	398.432
1164	412.381
1165.63	406.996
1167.25	402.278
1168.87	396.894
1170.49	410.176
1172.12	408.791
1173.74	398.073
1175.36	391.355
1176.98	397.971
1178.6	391.253
1180.22	403.202
1181.84	399.151
1183.46	399.099
1185.08	394.381
1186.7	407.663
1188.32	402.279
1189.94	407.561
1191.56	404.176
1193.18	395.458
1194.79	406.741
1196.41	421.356
1198.03	391.305
1199.64	400.587
1201.26	395.869
1202.88	415.151
1204.49	395.766
1206.11	403.715
1207.72	388.997
1209.34	402.946
1210.95	404.228
1212.57	424.177
1214.18	386.126
1215.8	404.741
1217.41	417.356
1219.02	410.638
1220.64	394.587
1222.25	415.869
1223.86	395.818
1225.47	395.1
1227.08	405.716
1228.69	398.331
1230.3	360.946
1231.92	393.562
1233.53	398.844
1235.14	393.459
1236.75	408.741
1238.35	396.69
1239.96	385.306
1241.57	403.254
1243.18	401.87
1244.79	395.152
1246.4	392.434
1248.01	382.383
1249.61	397.665
1251.22	395.614
1252.82	397.562
1254.43	397.511
1256.04	404.793
1257.64	406.075
1259.25	383.357
1260.85	404.639
1262.46	400.588
1264.06	405.87
1265.67	396.486
1267.27	406.434
1268.87	398.383
1270.48	398.332
1272.08	402.947
1273.68	386.896
1275.28	392.845
1276.89	390.794
1278.49	399.409
1280.09	408.024
1281.69	399.306
1283.29	409.255
1284.89	403.871
1286.49	403.819
1288.09	404.768
1289.69	405.717
1291.29	402.332
1292.89	414.281
1294.49	426.23
1296.09	399.512
1297.68	394.127
1299.28	406.743
1300.88	404.691
1302.48	399.307
1304.07	404.589
1305.67	404.538
1307.26	398.486
1308.86	410.435
1310.46	409.717
1312.05	408.333
1313.65	389.615
1315.24	394.897
1316.84	399.512
1318.43	410.794
1320.02	393.41
1321.62	410.025
1323.21	404.641
1324.8	390.589
1326.39	399.872
1327.99	394.487
1329.58	398.436
1331.17	415.051
1332.76	415
1334.35	376.949
1335.94	400.897
1337.53	400.179
1339.12	398.795
1340.71	406.744
1342.3	412.692
1343.89	413.974
1345.48	389.923
1347.07	387.205
1348.65	410.487
1350.24	396.436
1351.83	396.385
1353.42	403
1355	407.616
1356.59	399.564
1358.18	396.18
1359.76	401.462
1361.35	390.077
1362.93	404.026
1364.52	408.642
1366.1	393.924
1367.69	393.206
1369.27	412.488
1370.86	383.103
1372.44	397.052
1374.02	408.334
1375.61	398.949
1377.19	387.565
1378.77	392.18
1380.35	402.796
1381.93	389.411
1383.52	409.36
1385.1	409.309
1386.68	403.257
1388.26	404.54
1389.84	389.155
1391.42	403.77
1393	385.052
1394.58	387.668
1396.16	388.283
1397.74	402.899
1399.31	398.181
1400.89	405.463
1402.47	420.745
1404.05	392.027
1405.63	411.976
1407.2	410.591
1408.78	403.873
1410.36	412.489
1411.93	394.437
1413.51	400.386
1415.08	415.002
1416.66	402.284
1418.23	422.232
1419.81	405.515
1421.38	405.463
1422.95	420.079
1424.53	408.027
1426.1	395.976
1427.68	423.925
1429.25	407.874
1430.82	391.156
1432.39	396.438
1433.96	422.387
1435.54	395.669
1437.11	411.618
1438.68	402.9
1440.25	408.848
1441.82	411.464
1443.39	410.746
1444.96	411.361
1446.53	399.977
1448.1	420.592
1449.67	400.541
1451.23	422.49
1452.8	423.772
1454.37	397.054
1455.94	399.003
1457.5	400.285
1459.07	400.9
1460.64	404.182
1462.21	406.131
1463.77	403.413
1465.34	402.028
1466.9	404.644
1468.47	395.926
1470.03	397.875
1471.6	392.49
1473.16	403.772
1474.72	397.054
1476.29	407.67
1477.85	394.952
1479.42	399.567
1480.98	393.516
1482.54	392.798
1484.1	391.413
1485.66	396.695
1487.23	404.644
1488.79	393.26
1490.35	405.875
1491.91	416.49
1493.47	407.773
1495.03	413.055
1496.59	402.337
1498.15	398.952
1499.71	407.568
1501.27	406.183
1502.83	408.132
1504.39	401.414
1505.94	400.029
1507.5	410.645
1509.06	419.927
1510.62	412.542
1512.17	402.491
1513.73	404.44
1515.29	404.388
1516.84	405.671
1518.4	430.953
1519.95	408.901
1521.51	426.183
1523.06	416.799
1524.62	423.414
1526.17	431.363
1527.72	435.312
1529.28	430.594
1530.83	423.209
1532.38	421.158
1533.94	417.773
1535.49	435.722
1537.04	412.338
1538.59	418.286
1540.15	410.235
1541.7	427.517
1543.25	405.466
1544.8	418.081
1546.35	421.363
1547.9	396.646
1549.45	398.594
1551	409.876
1552.55	409.825
1554.1	405.107
1555.65	410.389
1557.19	407.005
1558.74	417.62
1560.29	404.902
1561.84	405.518
1563.38	414.133
1564.93	407.415
1566.48	408.031
1568.02	409.979
1569.57	401.261
1571.12	408.543
1572.66	396.492
1574.2	403.108
1575.75	399.056
1577.3	402.339
1578.84	407.621
1580.38	401.569
1581.93	389.518
1583.47	415.467
1585.01	414.749
1586.56	386.698
1588.1	423.313
1589.64	405.929
1591.18	407.211
1592.72	408.493
1594.27	414.441
1595.81	417.724
1597.35	393.006
1598.89	395.621
1600.43	402.236
1601.97	399.519
1603.51	400.801
1605.05	396.083
1606.59	407.976
1608.12	408.987
1609.66	398.661
1611.2	405.59
1612.74	402.564
1614.27	392.274
1615.81	396.64
1617.35	393.891
1618.89	403.218
1620.42	400.81
1621.96	393.47
1623.5	390.123
1625.03	389.669
1626.57	399.602
1628.1	399.037
1629.63	398.348
1631.17	405.607
1632.7	398.679
1634.24	405.929
1635.77	391.35
1637.3	399.947
1638.84	395.452
1640.37	397.695
1641.9	390.952
1643.43	389.875
1644.97	407.634
1646.5	403.201
1648.03	389.44
1649.56	399.778
1651.09	386.627
1652.62	402.496
1654.15	393.028
1655.68	399.11
1657.21	401.679
1658.74	399.602
1660.27	406.448
1661.79	401.888
1663.32	407.834
1664.85	412.028
1666.38	394.329
1667.91	394.954
1669.43	416.13
1670.96	398.588
1672.49	397.933
1674.01	399.012
1675.54	398.555
1677.06	403.928
1678.59	401.177
1680.11	392.66
1681.64	395.834
1683.16	394.466
1684.69	399.376
1686.21	400.222
1687.73	408.392
1689.26	407.527
1690.78	394.787
1692.3	398.199
1693.83	396.915
1695.35	411.056
1696.87	399.821
1698.39	395.336
1699.91	405.62
1701.43	389.486
1702.96	402.148
1704.48	407.536
1706	396.962
1707.52	399.54
1709.04	399.355
1710.55	395.842
1712.07	407.934
1713.59	391.423
1715.11	397.218
1716.63	399.027
1718.15	386.396
1719.66	391.12
1721.18	395.368
1722.7	375.583
1724.21	401.851
1725.73	387.103
1727.25	386.713
1728.76	396.098
1730.28	390.607
1731.8	391.161
1733.31	377.624
1734.82	393.585
1736.34	393.922
1737.85	396.612
1739.37	407.928
1740.88	391.778
1742.39	395.253
1743.91	386.148
1745.42	391.848
1746.93	390.925
1748.45	389.612
1749.96	391.389
1751.47	389.182
1752.98	388.942
1754.49	382.328
1756	391.842
1757.51	393.088
1757.73	392.929
1759.25	361.559
1760.77	389.523
1762.28	368.153
1763.8	392.784
1765.31	385.414
1766.83	378.044
1768.34	392.008
1769.86	377.971
1771.37	392.602
1772.89	387.899
1774.4	391.196
1775.92	395.159
1777.43	390.456
1778.94	389.753
1780.46	393.05
1781.97	393.68
1783.48	379.644
1784.99	382.941
1786.51	382.238
1788.02	394.868
1789.53	394.832
1791.04	394.796
1792.55	382.759
1794.06	388.723
1795.57	392.02
1797.08	392.65
1798.59	393.947
1800.1	382.577
1801.61	395.874
1803.12	391.838
1804.63	373.135
1806.13	387.765
1807.64	395.062
1809.15	388.359
1810.66	384.989
1812.16	402.966
1813.67	388.276
1815.18	389.586
1816.68	386.229
1818.19	383.539
1819.7	371.515
1821.2	402.158
1822.71	384.802
1824.21	383.445
1825.72	390.755
1827.22	380.731
1828.72	394.708
1830.23	392.017
1831.73	401.327
1833.23	389.304
1834.74	373.947
1836.24	393.257
1837.74	386.567
1839.24	393.877
1840.75	393.853
1842.25	391.83
1843.75	397.139
1845.25	386.449
1846.75	392.426
1848.25	380.402
1849.75	383.712
1851.25	385.022
1852.75	396.332
1854.25	387.642
1855.75	381.618
1857.25	393.595
1858.75	384.238
1860.24	388.214
1861.74	380.191
1863.24	392.167
1864.74	398.144
1866.23	388.12
1867.73	376.764
1869.23	388.073
1870.72	384.717
1872.22	360.693
1873.71	377.336
1875.21	381.313
1876.7	388.623
1878.2	389.933
1879.69	392.576
1881.19	385.886
1882.68	377.862
1884.18	383.839
1885.67	388.482
1887.16	393.792
1888.66	388.435
1890.15	390.411
1891.64	397.055
1893.13	393.031
1894.62	369.674
1896.11	399.651
1897.61	380.961
1899.1	385.604
1900.59	372.914
1902.08	404.223
1903.57	385.533
1905.06	385.51
1906.55	371.486
1908.04	387.463
1909.53	396.106
1911.02	371.416
1912.5	394.726
1913.99	380.036
1915.48	380.679
1916.97	371.322
1918.46	389.965
1919.94	369.275
1921.43	380.585
1922.92	395.228
1924.4	378.538
1925.89	389.181
1927.37	367.824
1928.86	395.134
1930.34	382.444
1931.83	375.087
1933.31	377.73
1934.8	385.04
1936.28	397.017
1937.77	374.326
1939.25	377.636
1940.73	369.613
1942.22	385.589
1943.7	383.566
1945.18	382.876
1946.66	390.852
1948.14	384.829
1949.63	396.139
1951.11	386.782
1952.59	380.758
1954.07	388.068
1955.55	394.045
1957.03	374.021
1958.51	392.664
1959.99	389.974
1961.47	383.284
1962.95	383.927
1964.43	379.237
1965.91	383.214
1967.39	375.857
1968.86	373.167
1970.34	377.143
1971.82	359.786
1973.3	380.43
1974.77	381.739
1976.25	385.049
1977.73	385.026
1979.2	367.002
1980.68	375.645
1982.15	362.289
1983.63	379.598
1985.1	372.242
1986.58	378.218
1988.05	379.528
1989.53	370.838
1991	376.148
1992.47	376.791
1993.95	355.434
1995.42	382.077
1996.89	378.054
1998.37	375.364
1999.84	381.34
2001.31	365.983
2002.78	373.293
2004.25	374.603
2005.73	357.913
2007.2	358.556
2008.67	377.866
2010.14	386.509
2011.61	372.486
2013.08	373.129
2014.55	377.105
2016.02	377.748
2017.49	377.725
2018.96	369.701
2020.42	381.011
2021.89	362.321
2023.36	383.631
2024.83	372.941
2026.3	387.584
2027.76	375.561
2029.23	378.87
2030.7	375.514
2032.16	373.49
2033.63	365.467
2035.09	378.11
2036.56	372.086
2038.03	396.063
2039.49	362.706
2040.96	382.683
2042.42	382.659
2043.88	369.969
2045.35	365.279
2046.81	369.255
2048.28	371.232
2049.74	361.875
2051.2	367.851
2052.67	375.161
2054.13	383.138
2055.59	377.781
2057.05	382.424
2058.51	373.067
2059.97	372.377
2061.43	358.354
2062.9	380.997
2064.36	362.973
2065.82	381.617
2067.28	368.26
2068.74	370.903
2070.2	360.88
2071.65	377.523
2073.11	380.166
2074.57	372.142
2076.03	358.119
2077.49	378.095
2078.95	365.405
2080.4	382.048
2081.86	380.025
2083.32	360.668
2084.78	371.978
2086.23	373.288
2087.69	368.598
2089.15	359.908
2090.6	357.884
2092.05	366.527
2093.51	369.17
2094.97	359.814
2096.42	359.79
2097.87	363.767
2099.33	355.743
2100.78	357.053
2102.24	365.696
2103.69	353.673
2105.14	362.983
2106.6	357.626
2108.05	366.936
2109.5	378.245
2110.95	353.555
2112.4	360.198
2113.86	363.508
2115.31	358.151
2116.76	370.128
2118.21	363.438
2119.66	368.081
2121.11	349.391
2122.56	361.367
2124.01	369.344
2125.46	363.987
2126.91	342.63
2128.35	369.273
2129.8	368.583
2131.25	359.893
2132.7	359.203
2134.15	365.179
2135.59	350.489
2137.04	362.466
2138.49	369.109
2139.94	362.419
2141.38	345.062
2142.83	364.372
2144.27	347.682
2145.72	361.658
2147.16	361.635
2148.61	360.945
2150.05	343.588
2151.5	356.231
2152.94	358.874
2154.39	362.851
2155.83	351.494
2157.27	348.137
2158.72	363.447
2160.16	371.423
2161.6	349.4
2163.05	367.376
2164.49	356.02
2165.93	357.996
2167.37	363.973
2168.81	357.949
2170.26	363.926
2171.7	359.902
2173.14	366.545
2174.58	353.189
2176.02	357.832
2177.46	361.142
2178.9	355.785
2180.34	359.761
2181.77	359.738
2183.21	360.381
2184.65	357.024
2186.09	347.667
2187.53	362.311
2188.97	352.287
2190.4	355.597
2191.84	353.573
2193.28	354.883
2194.71	347.526
2196.15	344.17
2197.59	350.813
2199.02	344.123
2200.46	364.766
2201.89	353.409
2203.33	344.052
2204.76	361.362
2206.2	356.005
2207.63	340.648
2209.07	358.625
2210.5	343.935
2211.93	347.911
2213.37	339.221
2214.8	350.531
2216.23	348.508
2217.67	341.817
2219.1	333.794
2220.53	355.104
2221.96	355.747
2223.39	340.39
2224.82	335.033
2226.26	338.343
2227.69	348.32
2229.12	344.296
2230.55	348.939
2231.98	338.916
2233.41	350.226
2234.84	337.536
2236.26	358.845
2237.69	348.822
2239.12	338.798
2240.55	348.775
2241.98	337.418
2243.41	334.728
2244.83	334.704
2246.26	338.014
2247.69	343.324
2249.11	333.301
2250.54	338.611
2251.97	337.254
2253.39	320.564
2254.82	343.873
2256.24	331.183
2257.67	335.826
2259.09	347.136
2260.52	347.113
2261.94	325.089
2263.37	331.732
2264.79	331.042
2266.22	318.352
2267.64	336.329
2269.06	323.639
2270.49	332.282
2271.91	337.592
2273.33	337.568
2274.75	338.211
2276.18	351.521
2277.59	349.498
2279.02	332.807
2280.44	332.117
2281.86	335.427
2283.28	342.737
2284.7	338.047
2286.12	343.357
2287.54	326
2288.96	332.643
2290.38	330.62
2291.8	320.596
2293.22	317.239
2294.63	335.882
2296.05	338.526
2297.47	335.835
2298.89	337.812
2300.31	323.789
2301.72	328.432
2303.14	344.408
2304.56	337.051
2305.97	340.361
2307.39	321.671
2308.81	336.314
2310.22	338.291
2311.64	340.934
2313.05	327.577
2314.47	334.22
2315.88	336.863
2317.3	349.507
2318.71	317.483
2320.12	340.793
2321.54	326.77
2322.95	347.413
2324.36	332.723
2325.78	332.699
2327.19	328.009
2328.6	325.986
2330.01	327.962
2331.43	334.605
2332.84	330.582
2334.25	335.225
2335.66	317.201
2337.07	331.845
2338.48	324.488
2339.89	325.131
2341.3	319.107
2342.71	322.417
2344.12	316.394
2345.53	325.037
2346.94	333.013
2348.35	337.657
2349.76	338.967
2351.17	330.943
2352.57	321.586
2353.98	328.896
2355.39	318.206
2356.8	320.849
2358.2	328.159
2359.61	334.135
2361.02	316.779
2362.42	320.755
2363.83	338.732
2365.23	334.708
2366.64	326.018
2368.04	328.661
2369.45	317.971
2370.85	321.281
2372.26	336.591
2373.66	322.567
2375.07	318.544
2376.47	329.854
2377.87	323.83
2379.28	333.14
2380.68	317.117
2382.08	309.76
2383.49	325.07
2384.89	333.713
2386.29	318.356
2387.69	316.332
2389.09	301.642
2390.49	324.952
2391.9	328.262
2393.3	327.572
2394.7	321.548
2396.1	311.525
2397.5	314.835
2398.9	320.145
2400.29	320.121
2401.69	313.431
2403.09	302.074
2404.49	321.384
2405.89	318.694
2407.29	330.004
2408.69	321.98
2410.08	307.29
2411.48	319.267
2412.88	323.243
2414.28	319.886
2415.67	312.529
2417.07	319.839
2418.47	308.482
2419.86	322.459
2421.26	315.102
2422.65	323.745
2424.05	316.388
2425.44	303.032
2426.84	316.342
2428.23	311.651
2429.62	319.628
2431.02	305.604
2432.41	316.248
2433.81	324.891
2435.2	316.867
2436.59	327.51
2437.98	320.82
2439.38	322.13
2440.77	328.107
2442.16	315.417
2443.55	310.726
2444.94	315.37
2446.34	322.679
2447.73	326.656
2449.12	319.299
2450.51	327.942
2451.9	324.585
2453.29	321.895
2454.68	313.872
2456.07	318.515
2457.46	321.158
2458.84	318.468
2460.23	323.778
2461.62	319.088
2463.01	326.398
2464.4	314.374
2465.78	331.017
2467.17	318.994
2468.56	320.304
2469.95	318.28
2471.33	310.257
2472.72	329.567
2474.1	301.543
2475.49	320.186
2476.88	312.163
2478.26	322.139
2479.65	322.116
2481.03	315.426
2482.42	318.069
2483.8	319.379
2485.19	312.022
2486.57	326.665
2487.95	321.975
2489.34	305.951
2490.72	317.928
2492.1	310.571
2493.49	319.881
2494.87	313.191
2496.25	329.167
2497.63	309.144
2499.01	320.454
2500.39	329.763
2501.77	319.74
2503.16	319.717
2504.54	307.693
2505.92	318.336
2507.3	319.646
2508.68	304.956
2510.06	314.932
2511.44	322.242
2512.81	299.552
2514.19	307.529
2515.57	320.838
2516.95	310.815
2518.33	314.792
2519.71	316.768
2521.08	313.411
2522.46	318.054
2523.84	312.031
2525.22	310.007
2526.59	309.317
2527.97	299.96
2529.35	309.27
2530.72	302.58
2532.1	308.557
2533.47	307.2
2534.85	311.843
2536.22	307.153
2537.6	314.463
2538.97	310.439
2540.35	303.749
2541.72	302.392
2543.09	303.035
2544.47	307.679
2545.84	315.655
2547.21	317.632
2548.59	311.608
2549.96	313.585
2551.33	317.561
2552.7	298.871
2554.08	303.514
2555.45	318.824
2556.82	310.134
2558.19	312.777
2559.56	312.754
2560.93	312.73
2562.3	314.04
2563.67	307.35
2565.04	315.993
2566.41	305.303
2567.78	297.279
2569.15	301.923
2570.52	315.899
2571.89	319.876
2573.25	311.852
2574.62	316.495
2575.99	293.805
2577.36	308.448
2578.73	309.092
2580.09	301.068
2581.46	299.045
2582.83	301.021
2584.19	312.331
2585.56	314.307
2586.93	296.951
2588.29	294.26
2589.66	308.904
2591.02	303.547
2592.39	304.19
2593.75	312.167
2595.12	311.476
2596.48	303.453
2597.84	307.429
2599.21	306.073
2600.57	315.382
2601.93	310.692
2603.3	312.669
2604.66	305.979
2606.02	307.288
2607.39	298.598
2608.75	316.575
2610.11	307.218
2611.47	313.195
2612.83	307.171
2614.19	320.481
2615.55	313.124
2616.91	306.434
2618.27	305.077
2619.63	308.387
2620.99	299.697
2622.35	303.673
2623.71	308.983
2625.07	322.96
2626.43	303.603
2627.79	304.913
2629.15	311.556
2630.51	314.199
2631.86	316.842
2633.22	314.819
2634.58	318.129
2635.94	307.438
2637.29	297.415
2638.65	312.058
2640.01	311.368
2641.36	306.678
2642.72	297.988
2644.08	309.964
2645.43	310.607
2646.79	305.917
2648.14	304.56
2649.49	297.204
2650.85	289.847
2652.2	303.157
2653.56	309.8
2654.91	309.11
2656.26	310.42
2657.62	299.729
2658.97	303.706
2660.32	302.349
2661.68	292.326
2663.03	308.302
2664.38	300.945
2665.73	296.922
2667.09	310.232
2668.44	308.875
2669.79	309.518
2671.14	296.828
2672.49	302.804
2673.84	302.781
2675.19	304.757
2676.54	294.734
2677.89	304.044
2679.24	292.687
2680.59	294.663
2681.94	298.64
2683.29	298.616
2684.63	301.26
2685.98	304.569
2687.33	295.213
2688.68	298.523
2690.03	299.166
2691.37	299.142
2692.72	296.452
2694.07	305.762
2695.41	285.738
2696.76	295.715
2698.11	288.358
2699.45	303.668
2700.8	302.978
2702.14	308.954
2703.49	290.931
2704.83	297.574
2706.18	306.217
2707.52	302.194
2708.87	302.17
2710.21	296.147
2711.55	297.457
2712.9	294.766
2714.24	287.41
2715.58	308.053
2716.93	302.696
2718.27	309.339
2719.61	294.649
2720.95	295.292
2722.3	297.935
2723.64	285.245
2724.98	296.555
2726.32	295.865
2727.66	292.508
2729	305.818
2730.34	307.128
2731.68	295.771
2733.02	287.081
2734.36	297.724
2735.7	303.034
2737.04	313.01
2738.38	275.654
2739.72	302.297
2741.06	285.607
2742.39	289.583
2743.73	297.56
2745.07	298.869
2746.41	308.179
2747.74	294.156
2749.08	288.132
2750.42	303.442
2751.75	298.085
2753.09	298.062
2754.43	294.038
2755.76	296.682
2757.1	288.658
2758.43	301.301
2759.77	270.611
2761.1	294.588
2762.44	297.231
2763.77	295.207
2765.11	297.184
2766.44	297.827
2767.78	305.137
2769.11	287.78
2770.44	299.09
2771.78	287.066
2773.11	285.71
2774.44	310.353
2775.77	284.329
2777.11	288.306
2778.44	305.616
2779.77	296.926
2781.1	296.235
2782.43	292.879
2783.76	285.522
2785.09	308.165
2786.42	297.475
2787.76	294.785
2789.08	298.094
2790.41	293.404
2791.74	298.047
2793.07	289.357
2794.4	313.334
2795.73	303.977
2797.06	290.62
2798.39	296.597
2799.72	293.907
2801.04	300.55
2802.37	295.193
2803.7	293.169
2805.03	286.479
2806.35	289.122
2807.68	281.099
2809.01	291.076
2810.33	289.052
2811.66	297.029
2812.98	295.005
2814.31	278.315
2815.63	288.291
2816.96	292.268
2818.28	292.911
2819.61	287.554
2820.94	296.197
2822.26	284.841
2823.58	288.817
2824.91	291.46
2826.23	300.104
2827.55	290.08
2828.88	300.723
2830.2	292.033
2831.52	288.01
2832.84	291.986
2834.16	282.629
2835.49	295.939
2836.81	288.582
2838.13	289.892
2839.45	287.202
2840.77	291.845
2842.09	290.488
2843.41	288.465
2844.73	295.775
2846.05	268.418
2847.37	291.728
2848.69	287.038
2850.01	291.014
2851.33	278.991
2852.65	286.967
2853.97	289.61
2855.29	286.254
2856.6	287.563
2857.92	291.54
2859.24	288.183
2860.56	290.16
2861.87	291.469
2863.19	286.779
2864.51	305.422
2865.82	276.066
2867.14	297.376
2868.46	297.352
2869.77	297.329
2871.09	293.972
2872.4	272.615
2873.72	271.925
2875.03	297.901
2876.35	276.544
2877.66	278.521
2878.98	287.164
2880.29	301.807
2881.6	295.117
2882.92	299.76
2884.23	291.07
2885.54	288.38
2886.86	296.357
2888.17	280.333
2889.48	278.976
2890.79	288.953
2892.1	283.596
2893.42	284.239
2894.73	286.882
2896.04	286.859
2897.35	284.169
2898.66	288.812
2899.97	290.122
2901.28	292.098
2902.59	287.408
2903.9	289.385
2905.21	289.361
2906.52	286.004
2907.83	285.314
2909.14	293.957
2910.45	290.6
2911.76	299.244
2913.06	293.887
2914.37	289.863
2915.68	295.84
2916.99	293.816
2918.29	281.818
2919.6	280.426
2920.91	294.151
2922.21	281.851
2923.52	279.92
2924.83	273.032
2926.13	286.033
2927.44	283.419
2928.74	286.084
2930.05	289.119
2931.35	281.346
2932.66	282.879
2933.96	281.391
2935.27	289.29
2936.57	277.211
2937.88	280.233
2939.18	287.284
2940.48	271.861
2941.79	285.754
2943.09	280.327
2944.39	278.345
2945.69	279.02
2946.99	277.518
2948.3	288.355
2949.6	274.53
2950.9	282.982
2952.2	281.648
2953.5	266.159
2954.8	277.556
2956.1	276.476
2957.4	287.678
2958.7	276.61
2960	279.197
2961.3	277.601
2962.6	278.54
2963.9	281.925
2965.2	269.832
2966.5	277.223
2967.8	277.876
2969.1	280.217
2970.4	279.485
2971.69	278.693
2972.99	282.98
2974.29	279.405
2975.59	283.912
2976.88	276.197
2978.18	277.66
2979.48	277.05
2980.77	270.358
2982.07	271.821
2983.36	268.159
2984.66	277.2
2985.95	271.148
2987.25	277.417
2988.55	276.942
2989.84	271.635
2991.13	266.808
2992.43	277.871
2993.72	276.904
2995.02	275.459
2996.31	266.66
2997.6	266.867
2998.9	267.526
3000.19	273.457
3001.48	267.43
3002.77	277.099
3004.07	272.54
3005.36	262.957
3006.65	279.217
3007.94	269.606
3009.23	273.414
3010.53	260.641
3011.82	280.288
3013.11	267.133
3014.4	273.41
3015.69	265.686
3016.98	265.641
3018.27	275.191
3019.56	271.885
3020.85	262.431
3022.13	267.905
3023.42	266.588
3024.71	269.78
3026	271.78
3027.29	257.09
3028.58	273.917
3029.86	264.145
3031.15	275.472
3032.44	280.54
3033.73	268.439
3035.01	260.879
3036.3	268.504
3037.58	263.438
3038.87	264.354
3040.16	275.742
3041.44	273.06
3042.73	276.994
3044.01	269.403
3045.3	265.76
3046.58	264.308
3047.87	266.395
3048.04	266.748
3049.33	261.408
3050.62	268.068
3051.91	268.729
3053.2	288.056
3054.49	260.049
3055.77	247.376
3057.06	260.703
3058.35	262.03
3059.64	258.024
3060.93	265.351
3062.22	262.011
3063.51	266.671
3064.79	255.331
3066.08	274.658
3067.37	263.319
3068.66	268.646
3069.94	266.639
3071.23	251.966
3072.52	264.626
3073.8	245.953
3075.09	262.614
3076.37	252.607
3077.66	253.934
3078.94	267.928
3080.23	267.255
3081.51	252.582
3082.8	261.909
3084.08	264.569
3085.37	257.896
3086.65	260.556
3087.94	254.55
3089.22	264.543
3090.5	263.204
3091.78	263.864
3093.07	265.191
3094.35	259.184
3095.63	253.845
3096.91	266.505
3098.2	266.499
3099.48	253.826
3100.76	264.486
3102.04	262.479
3103.32	262.473
3104.6	265.133
3105.88	252.46
3107.16	261.12
3108.44	262.447
3109.72	273.774
3111	264.435
3112.28	281.095
3113.56	275.089
3114.84	265.749
3116.12	262.409
3117.4	260.403
3118.68	265.73
3119.96	257.723
3121.23	244.384
3122.51	267.044
3123.79	268.371
3125.07	260.364
3126.34	260.358
3127.62	273.018
3128.9	256.345
3130.18	257.005
3131.45	257.666
3132.73	264.993
3134	252.986
3135.28	256.313
3136.55	262.307
3137.83	263.634
3139.1	261.627
3140.38	264.288
3141.65	255.615
3142.93	246.942
3144.2	257.602
3145.47	260.262
3146.75	257.589
3148.02	246.249
3149.29	262.91
3150.57	258.903
3151.84	256.23
3153.11	258.89
3154.39	262.884
3155.66	262.211
3156.93	262.205
3158.2	257.531
3159.47	246.192
3160.74	255.519
3162.01	260.846
3163.28	262.839
3164.56	246.166
3165.83	250.16
3167.1	266.82
3168.37	256.814
3169.64	254.141
3170.91	256.134
3172.18	261.461
3173.44	261.455
3174.71	250.782
3175.98	262.775
3177.25	257.436
3178.52	256.096
3179.79	256.089
3181.05	265.416
3182.32	268.077
3183.59	256.07
3184.86	244.731
3186.12	256.724
3187.39	260.718
3188.66	241.378
3189.92	258.038
3191.19	262.699
3192.45	247.359
3193.72	262.686
3194.98	257.346
3196.25	260.006
3197.51	234.667
3198.78	263.327
3200.04	259.987
3201.31	256.647
3202.57	248.641
3203.84	259.968
3205.1	251.295
3206.36	259.955
3207.63	248.616
3208.89	245.942
3210.15	252.603
3211.41	259.93
3212.68	257.257
3213.94	248.584
3215.2	253.244
3216.46	254.571
3217.72	239.898
3218.99	244.558
3220.25	255.218
3221.51	253.212
3222.77	261.872
3224.03	241.199
3225.29	245.859
3226.55	246.52
3227.81	255.847
3229.07	253.174
3230.33	252.5
3231.59	255.161
3232.84	252.488
3234.1	255.815
3235.36	241.808
3236.62	250.468
3237.88	254.462
3239.13	250.456
3240.39	244.449
3241.65	253.776
3242.91	250.437
3244.16	245.097
3245.42	235.757
3246.68	257.084
3247.93	245.078
3249.19	251.738
3250.45	238.398
3251.7	245.725
3252.96	243.719
3254.21	237.712
3255.47	241.039
3256.72	249.7
3257.98	255.693
3259.23	235.02
3260.49	249.014
3261.74	241.007
3262.99	255.001
3264.25	243.661
3265.5	242.321
3266.75	250.315
3268	244.975
3269.26	234.969
3270.51	248.296
3271.76	230.956
3273.02	254.283
3274.27	257.61
3275.52	248.937
3276.77	241.597
3278.02	246.258
3279.27	248.918
3280.52	262.245
3281.77	239.572
3283.02	238.232
3284.27	242.226
3285.52	234.886
3286.77	244.879
3288.02	247.54
3289.27	243.533
3290.52	242.194
3291.77	244.854
3293.02	235.514
3294.27	234.841
3295.51	240.835
3296.76	246.162
3298.01	251.489
3299.26	246.816
3300.5	247.476
3301.75	233.469
3303	236.796
3304.24	242.123
3305.49	254.784
3306.74	238.111
3307.99	244.771
3309.23	237.431
3310.48	240.758
3311.72	236.085
3312.97	254.745
3314.21	248.739
3315.46	248.732
3316.7	250.726
3317.94	244.72
3319.19	247.38
3320.43	242.04
3321.68	234.7
3322.92	246.694
3324.16	240.021
3325.41	251.348
3326.65	241.342
3327.89	250.002
3329.13	237.329
3330.38	241.322
3331.62	243.983
3332.86	237.976
3334.1	248.637
3335.34	240.63
3336.58	243.29
3337.83	239.951
3339.07	240.611
3340.31	243.271
3341.55	239.265
3342.79	238.592
3344.03	243.252
3345.27	233.912
3346.51	239.239
3347.75	243.233
3348.99	239.893
3350.22	245.887
3351.46	238.547
3352.7	237.874
3353.94	231.201
3355.18	229.195
3356.42	233.188
3357.65	237.848
3358.89	239.175
3360.13	222.502
3361.36	237.163
3362.6	224.49
3363.84	234.483
3365.07	233.81
3366.31	232.47
3367.55	233.797
3368.78	231.124
3370.02	232.451
3371.25	240.445
3372.49	233.105
3373.72	223.099
3374.96	239.759
3376.19	240.419
3377.43	221.079
3378.66	229.74
3379.89	236.4
3381.13	243.06
3382.36	233.721
3383.59	227.714
3384.83	233.041
3386.06	243.701
3387.29	221.695
3388.52	239.689
3389.76	228.349
3390.99	225.009
3392.22	228.336
3393.45	214.996
3394.68	231.657
3395.91	234.317
3397.15	231.644
3398.38	232.971
3399.61	240.298
3400.84	213.625
3402.07	234.952
3403.3	226.945
3404.53	226.272
3405.76	226.932
3406.99	226.926
3408.21	218.92
3409.44	232.913
3410.67	230.24
3411.9	226.234
3413.13	220.227
3414.36	238.221
3415.58	225.548
3416.81	226.208
3418.04	234.202
3419.27	216.862
3420.49	232.856
3421.72	228.183
3422.95	228.176
3424.17	227.503
3425.4	234.83
3426.62	230.824
3427.85	228.817
3429.08	226.811
3430.3	228.138
3431.53	235.465
3432.75	242.792
3433.98	231.452
3435.2	227.446
3436.42	228.106
3437.65	226.1
3438.87	227.427
3440.1	220.087
3441.32	235.414
3442.54	226.741
3443.76	239.401
3444.99	234.728
3446.21	226.055
3447.43	234.715
3448.66	225.375
3449.88	233.369
3451.1	235.363
3452.32	238.69
3453.54	232.683
3454.76	223.343
3455.98	214.67
3457.21	231.331
3458.43	226.658
3459.65	233.985
3460.87	232.645
3462.09	227.305
3463.3	219.299
3464.53	227.959
3465.74	223.286
3466.96	225.946
3468.18	222.606
3469.4	237.933
3470.62	221.927
3471.84	225.921
3473.06	225.914
3474.27	210.575
3475.49	235.901
3476.71	229.895
3477.93	224.555
3479.14	229.216
3480.36	233.209
3481.58	221.869
3482.79	215.863
3484.01	212.523
3485.22	237.184
3486.44	226.511
3487.66	232.504
3488.87	243.831
3490.09	229.158
3491.3	224.485
3492.52	223.145
3493.73	219.139
3494.95	233.799
3496.16	223.126
3497.37	229.12
3498.59	217.113
3499.8	223.774
3501.01	223.101
3502.23	214.427
3503.44	217.088
3504.65	217.081
3505.87	219.742
3507.08	222.402
3508.29	217.729
3509.5	223.056
3510.71	215.716
3511.93	219.71
3513.14	216.37
3514.35	214.364
3515.56	210.357
3516.77	223.017
3517.98	201.011
3519.19	215.671
3520.4	206.332
3521.61	212.325
3522.82	216.985
3524.03	209.646
3525.24	212.306
3526.45	215.633
3527.66	217.627
3528.86	212.287
3530.07	208.28
3531.28	211.607
3532.49	218.934
3533.7	210.261
3534.9	216.255
3536.11	210.915
3537.32	212.909
3538.53	213.569
3539.73	204.229
3540.94	214.223
3542.15	211.55
3543.35	202.877
3544.56	216.204
3545.76	216.197
3546.97	194.191
3548.18	204.851
3549.38	217.512
3550.59	206.838
3551.79	202.165
3553	209.492
3554.2	200.819
3555.4	216.813
3556.61	192.14
3557.81	203.467
3559.02	208.794
3560.22	200.787
3561.42	202.781
3562.62	217.441
3563.83	204.101
3565.03	214.762
3566.23	211.422
3567.44	200.082
3568.64	205.409
3569.84	214.736
3571.04	198.73
3572.24	199.39
3573.44	206.717
3574.64	214.044
3575.84	206.038
3577.04	214.698
3578.25	204.691
3579.45	212.685
3580.65	203.345
3581.84	208.672
3583.04	209.333
3584.24	201.993
3585.44	201.986
3586.64	212.647
3587.84	203.307
3589.04	210.634
3590.24	200.628
3591.44	203.288
3592.63	202.615
3593.83	207.942
3595.03	203.935
3596.23	203.929
3597.42	206.589
3598.62	205.249
3599.82	207.91
3601.01	203.237
3602.21	207.897
3603.41	212.557
3604.6	211.217
3605.8	205.211
3606.99	203.871
3608.19	198.532
3609.38	207.859
3610.58	201.186
3611.77	211.179
3612.97	204.506
3614.16	203.833
3615.36	213.827
3616.55	197.82
3617.74	197.147
3618.94	201.807
3620.13	201.801
3621.32	205.128
3622.52	194.455
3623.71	198.449
3624.9	214.442
3626.09	206.436
3627.29	196.429
3628.48	204.423
3629.67	209.083
3630.86	205.744
3632.05	198.404
3633.24	201.064
3634.44	204.391
3635.63	203.718
3636.82	215.712
3638.01	213.039
3639.2	212.365
3640.39	202.359
3641.58	197.686
3642.77	199.013
3643.95	198.34
3645.15	205.667
3646.33	206.994
3647.52	190.321
3648.71	194.314
3649.9	202.308
3651.09	191.635
3652.28	198.962
3653.46	215.622
3654.65	190.949
3655.84	204.943
3657.03	198.936
3658.21	200.263
3659.4	206.257
3660.58	200.25
3661.77	199.577
3662.96	192.238
3664.14	196.231
3665.33	192.891
3666.52	196.218
3667.7	194.212
3668.89	190.206
3670.07	195.533
3671.25	202.193
3672.44	198.186
3673.62	193.513
3674.81	195.507
3675.99	190.167
3677.18	187.494
3678.36	196.821
3679.54	190.815
3680.73	201.475
3681.91	189.469
3683.09	192.796
3684.27	191.456
3685.46	184.783
3686.64	195.443
3687.82	195.437
3689	185.43
3690.19	198.091
3691.37	181.418
3692.55	181.411
3693.73	187.405
3694.91	197.398
3696.09	188.725
3697.27	196.719
3698.45	195.379
3699.63	190.039
3700.81	184.7
3701.99	197.36
3703.17	190.02
3704.35	190.681
3705.53	185.341
3706.71	191.334
3707.89	196.661
3709.06	183.322
3710.24	179.315
3711.42	191.976
3712.6	187.302
3713.78	181.296
3714.95	199.956
3716.13	194.617
3717.31	191.944
3718.48	177.937
3719.66	177.264
3720.84	192.591
3722.01	189.251
3723.19	196.578
3724.37	189.239
3725.54	190.565
3726.72	186.559
3727.89	190.553
3729.07	191.213
3730.24	188.54
3731.42	187.867
3732.59	185.86
3733.77	192.521
3734.94	197.848
3736.12	183.175
3737.29	197.168
3738.46	193.162
3739.64	199.155
3740.81	186.482
3741.98	193.809
3743.15	184.47
3744.33	200.463
3745.5	190.457
3746.67	191.784
3747.84	184.444
3749.02	180.438
3750.19	185.098
3751.36	198.425
3752.53	192.418
3753.7	193.079
3754.87	196.406
3756.04	183.066
3757.21	179.726
3758.38	196.386
3759.55	190.38
3760.72	189.707
3761.89	189.701
3763.06	184.361
3764.23	193.021
3765.4	192.348
3766.57	195.008
3767.74	179.002
3768.91	190.996
3770.08	194.989
3771.24	182.983
3772.41	185.643
3773.58	196.97
3774.75	188.297
3775.91	188.957
3777.08	185.618
3778.25	182.944
3779.41	190.938
3780.58	196.932
3781.75	195.592
3782.91	186.252
3784.08	196.913
3785.25	188.239
3786.41	184.9
3787.58	182.893
3788.74	194.887
3789.91	188.214
3791.07	185.541
3792.24	190.201
3793.4	190.195
3794.57	194.188
3795.73	187.515
3796.89	194.176
3798.06	187.502
3799.22	197.496
3800.38	188.156
3801.55	190.817
3802.71	188.81
3803.87	186.137
3805.03	189.464
3806.2	190.124
3807.36	182.118
3808.52	188.445
3809.68	190.772
3810.84	187.432
3812.01	189.426
3813.17	194.086
3814.33	176.746
3815.49	190.74
3816.65	192.067
3817.81	189.394
3818.97	186.054
3820.13	192.048
3821.29	190.708
3822.45	191.368
3823.61	188.695
3824.77	194.689
3825.93	180.016
3827.09	185.343
3828.24	182.003
3829.4	189.33
3830.56	173.324
3831.72	185.317
3832.88	187.977
3834.04	182.638
3835.19	186.631
3836.35	197.292
3837.51	189.285
3838.66	175.945
3839.82	193.272
3840.98	173.933
3842.13	187.926
3843.29	187.253
3844.45	185.247
3845.6	185.907
3846.76	195.234
3847.91	173.894
3849.07	175.221
3850.22	192.548
3851.38	189.208
3852.53	187.869
3853.69	184.529
3854.84	187.856
3856	185.183
3857.15	181.176
3858.3	191.837
3859.46	181.164
3860.61	189.824
3861.76	183.818
3862.92	187.145
3864.07	176.471
3865.22	185.132
3866.37	177.125
3867.53	193.119
3868.68	193.779
3869.83	191.106
3870.98	189.766
3872.13	191.093
3873.28	205.087
3874.43	187.747
3875.59	185.741
3876.74	195.068
3877.89	189.061
3879.04	193.055
3880.19	190.382
3881.34	194.376
3882.49	189.036
3883.64	189.029
3884.79	192.356
3885.93	190.35
3887.08	191.01
3888.23	189.004
3889.38	198.331
3890.53	189.658
3891.68	198.985
3892.83	199.645
3893.97	197.639
3895.12	183.632
3896.27	190.292
3897.41	191.619
3898.56	189.613
3899.71	184.94
3900.86	206.267
3902	191.594
3903.15	198.254
3904.29	196.914
3905.44	194.908
3906.59	196.235
3907.73	198.895
3908.88	187.555
3910.02	188.882
3911.17	189.543
3912.31	194.203
3913.46	186.863
3914.6	201.524
3915.75	195.517
3916.89	191.511
3918.03	188.171
3919.18	204.831
3920.32	188.158
3921.46	193.485
3922.61	181.479
3923.75	188.139
3924.89	194.799
3926.03	197.46
3927.18	198.787
3928.32	187.447
3929.46	190.774
3930.6	210.767
3931.74	196.761
3932.89	198.755
3934.03	200.082
3935.17	202.742
3936.31	187.402
3937.45	200.729
3938.59	195.389
3939.73	191.383
3940.87	199.377
3942.01	192.037
3943.15	194.697
3944.29	206.024
3945.43	200.018
3946.57	205.345
3947.71	196.671
3948.84	197.998
3949.98	190.659
3951.12	197.986
3952.26	191.979
3953.4	183.973
3954.54	189.3
3955.67	192.627
3956.81	193.287
3957.95	191.281
3959.09	194.608
3960.22	206.601
3961.36	189.928
3962.5	199.255
3963.63	201.915
3964.77	201.909
3965.9	203.236
3967.04	196.563
3968.18	203.223
3969.31	197.217
3970.45	198.544
3971.58	199.204
3972.72	197.198
3973.85	205.858
3974.99	186.518
3976.12	199.178
3977.25	191.172
3978.39	205.166
3979.52	209.826
3980.65	197.819
3981.79	193.813
3982.92	186.473
3984.05	199.8
3985.19	206.461
3986.32	197.787
3987.45	196.448
3988.58	192.441
3989.72	193.102
3990.85	207.095
3991.98	208.422
3993.11	195.749
3994.24	199.076
3995.37	199.07
3996.5	207.73
3997.64	202.39
3998.77	198.384
3999.9	203.711
