#Acq. time (s)=	15
#Accumulations=	4
#Range (cm-¹)=	50...4000
#Windows=	3
#Autofocus=	Off
#AutoExposure=	Off
#Spike filter=	Multiple accum.
#Delay time (s)=	0
#Binning=	1
#Readout mode=	Signal
#DeNoise=	Off
#ICS correction=	Off
#Dark correction=	Off
#Inst. Process=	Off
#Instrument=	LabRAM HR Evol
#Detector=	Syncerity OE
#Objective=	x100_VIS
#Grating=	600 (500nm)
#ND Filter=	5%
#Laser=	532nm_Edge
#Hole=	100.021
#Range=	Visible
#Project=	Omar
#Sample=	120523
#Site=	ap
#Title=	mz
#Remark=	5 laser intensity
#Date=	12.05.2023 17:23
#Acquired=	12.05.2023 17:23:54
51.0297	20
52.8754	28.4111
54.7185	29.4889
56.5635	27.9001
58.406	34.9778
60.2502	52.0556
62.0919	70.4668
63.9355	92.2112
65.7765	104.622
67.6193	125.033
69.4595	146.778
71.3016	190.522
73.1412	246.267
74.9825	276.678
76.8214	295.756
78.662	317.5
80.5001	345.245
82.34	387.656
84.1774	406.067
86.0166	439.811
87.8532	456.223
89.6917	456.634
91.5276	449.045
93.3632	454.123
95.2006	442.534
97.0355	449.612
98.8721	444.689
100.706	469.1
102.54	466.845
104.376	461.256
106.209	485.667
108.041	487.412
109.876	469.156
111.708	488.901
113.542	498.645
115.373	505.056
117.204	498.134
119.036	475.878
120.867	497.623
122.697	488.034
124.526	489.112
126.357	508.19
128.186	482.601
130.014	485.679
131.845	480.09
133.672	483.167
135.5	504.245
137.327	505.323
139.155	489.734
140.982	504.812
142.807	498.556
144.633	521.634
146.46	528.712
148.285	503.79
150.11	512.868
151.934	515.945
153.757	531.69
155.583	513.434
157.406	534.512
159.229	520.923
161.051	521.334
162.873	520.412
164.697	508.157
166.518	527.234
168.339	505.646
170.159	519.39
171.98	506.468
173.799	531.546
175.619	518.623
177.44	527.701
179.259	534.779
181.077	535.19
182.895	522.935
184.713	516.679
186.53	524.424
188.347	526.835
190.164	531.912
191.98	536.99
193.796	522.068
195.612	540.479
197.427	547.557
199.242	543.301
201.059	535.046
202.873	542.79
204.686	526.535
206.5	554.946
208.313	522.69
210.126	550.435
211.938	536.179
213.75	536.59
215.562	537.002
217.373	529.413
219.184	541.824
220.993	524.235
222.803	532.646
224.613	548.391
226.422	549.468
228.232	547.213
230.04	548.957
231.849	554.702
233.657	531.779
235.465	538.857
237.272	553.935
239.079	542.346
240.886	549.424
242.693	536.502
244.497	540.246
246.302	564.657
248.108	553.735
249.913	537.48
251.717	557.891
253.521	552.302
255.325	552.046
257.127	559.124
258.93	548.202
260.733	555.28
262.535	562.358
264.338	562.102
266.137	553.847
267.939	550.258
269.74	553.335
271.541	554.413
273.341	566.158
275.139	555.902
276.939	544.98
278.738	562.724
280.537	563.802
282.334	572.213
284.132	563.291
285.93	561.036
287.728	550.113
289.523	567.191
291.32	568.269
293.117	560.68
294.911	562.425
296.707	562.836
298.502	565.247
300.295	556.991
302.09	563.402
303.885	568.48
305.677	567.558
307.47	570.636
309.264	579.714
311.055	572.125
312.848	585.869
314.64	582.28
316.43	581.358
318.222	561.769
320.011	556.847
321.802	585.258
323.593	565.669
325.381	570.081
327.171	579.158
328.958	570.903
330.748	585.314
332.535	577.725
334.323	570.136
336.109	576.547
337.897	574.292
339.685	574.036
341.47	577.114
343.257	572.192
345.041	579.936
346.827	585.681
348.611	583.425
350.397	575.17
352.18	583.581
353.962	591.992
355.747	587.07
357.529	579.481
359.312	561.892
361.094	584.97
362.877	588.048
364.658	580.459
366.44	584.87
368.22	569.281
369.999	605.025
371.781	574.77
373.56	597.181
375.34	588.259
377.119	595.336
378.896	601.748
380.676	596.159
382.453	587.903
384.23	616.314
386.009	596.726
387.785	611.137
389.561	596.214
391.338	615.959
393.113	607.037
394.888	594.115
396.665	601.859
398.439	607.603
400.213	599.348
401.988	616.426
403.761	603.503
405.534	602.581
407.306	612.992
409.081	610.737
410.852	609.815
412.624	612.226
414.395	625.97
416.167	611.715
417.938	614.793
419.708	615.87
421.477	618.948
423.249	604.026
425.018	609.104
426.786	622.182
428.555	611.259
430.323	585.67
432.092	604.082
433.86	615.159
435.627	592.904
437.393	611.315
439.16	630.393
440.926	590.804
442.691	625.882
444.458	637.626
446.223	622.037
447.988	630.448
449.752	631.526
451.516	609.937
453.28	635.015
455.043	621.426
456.806	618.504
458.568	627.582
460.33	617.326
462.092	633.071
463.854	641.482
465.615	635.893
467.378	642.971
469.138	632.049
470.899	641.126
472.658	625.538
474.418	648.615
476.177	652.36
477.936	645.438
479.694	647.182
481.452	632.926
483.21	630.671
484.966	645.082
486.723	659.493
488.48	651.904
490.236	642.982
491.992	648.06
493.748	629.138
495.503	652.882
497.258	651.96
499.013	660.371
500.768	646.116
502.522	636.527
504.276	656.938
506.029	667.349
507.78	639.76
509.533	637.505
511.285	650.582
513.037	662.327
514.789	636.738
516.54	641.149
518.289	646.227
520.04	660.638
521.791	656.382
523.541	646.127
525.29	657.871
527.04	658.949
528.787	671.36
530.536	652.438
532.284	679.516
534.032	667.927
535.778	673.005
537.525	662.749
539.272	664.494
541.019	669.572
542.763	661.316
544.509	679.06
546.255	688.138
548	691.216
549.743	692.294
551.488	680.705
553.232	668.449
554.974	692.194
556.718	668.605
558.462	669.016
560.203	678.761
561.945	673.172
563.688	658.25
565.428	681.327
567.169	673.738
568.911	676.816
570.65	661.894
572.391	673.638
574.129	688.05
575.869	675.127
577.609	692.205
579.346	689.283
581.085	690.361
582.822	685.439
584.56	691.183
586.296	681.594
588.034	682.005
589.771	685.75
591.506	684.161
593.243	676.572
594.978	658.983
596.714	680.061
598.447	674.472
600.183	694.883
601.916	678.628
603.651	708.372
605.383	671.45
607.117	667.194
608.849	688.939
610.582	681.35
612.313	735.761
614.044	692.839
615.776	703.917
617.507	680.328
619.238	696.739
620.968	691.15
622.699	708.228
624.428	716.639
626.156	715.717
627.886	699.461
629.614	717.872
631.342	710.284
633.071	719.361
634.797	724.439
636.526	718.184
638.252	712.595
639.978	732.339
641.705	725.417
643.431	716.495
645.155	724.906
646.88	723.984
648.606	735.728
650.33	720.806
652.053	719.217
653.779	686.962
655.502	720.706
657.224	727.784
658.946	728.862
660.67	745.939
662.392	725.684
664.113	723.428
665.834	696.506
667.556	718.917
669.277	718.662
670.997	723.74
672.716	727.484
674.435	711.228
676.156	718.306
677.875	717.384
679.593	724.462
681.311	716.873
683.029	715.284
684.746	736.362
686.465	730.773
688.182	719.851
689.898	714.929
691.614	728.006
693.33	746.418
695.045	725.495
696.76	719.906
698.475	719.651
700.189	731.395
701.904	727.806
703.619	714.884
705.333	719.962
707.046	729.707
708.759	738.784
710.471	725.195
712.183	723.607
713.895	734.684
715.606	753.096
717.317	743.507
719.028	733.251
720.739	742.329
722.449	744.74
724.159	749.151
725.868	734.229
727.578	746.64
729.286	757.718
730.995	744.796
732.703	749.874
734.409	750.285
736.117	728.696
737.824	746.44
739.531	738.185
741.237	744.596
742.944	745.674
744.65	756.751
746.355	747.829
748.061	738.907
749.766	731.318
751.468	741.063
753.173	744.14
754.877	751.885
756.581	752.296
758.284	751.374
759.987	744.452
761.688	726.863
763.39	755.94
765.092	749.685
766.794	747.429
768.496	755.841
770.195	732.252
771.896	735.329
773.596	726.407
775.296	748.818
776.994	751.23
778.694	774.307
780.393	769.385
782.092	751.13
783.788	760.207
785.487	754.619
787.185	776.363
788.882	754.774
790.578	725.852
792.274	729.596
793.971	739.341
795.666	750.419
797.362	758.83
799.057	731.908
800.751	751.652
802.446	765.396
804.138	765.141
805.833	764.219
807.527	758.63
809.219	756.374
810.912	762.119
812.605	765.863
814.296	763.608
815.989	785.352
817.679	791.097
819.371	773.508
821.06	767.919
822.752	786.997
824.441	775.408
826.131	775.819
827.822	790.897
829.51	798.641
831.199	769.052
832.887	786.13
834.576	797.875
836.262	806.952
837.951	763.363
839.637	789.775
841.323	770.852
843.01	789.93
844.695	791.675
846.382	795.419
848.066	778.497
849.753	786.908
851.436	792.653
853.122	774.397
854.805	789.475
856.488	789.886
858.173	806.964
859.855	776.708
861.539	794.453
863.221	777.53
864.902	792.608
866.585	790.353
868.266	784.097
869.946	793.842
871.628	789.586
873.308	811.331
874.987	799.742
876.668	784.153
878.347	801.897
880.026	798.308
881.704	793.386
883.384	799.797
885.061	776.208
886.739	794.62
888.418	798.364
890.094	796.108
891.771	792.52
893.447	795.597
895.122	778.675
896.799	785.086
898.475	783.497
900.149	812.575
901.824	802.986
903.498	776.064
905.174	789.809
906.847	795.553
908.52	787.964
910.193	804.375
911.866	814.12
913.538	817.198
915.212	798.942
916.883	796.687
918.555	811.098
920.226	790.176
921.896	809.92
923.567	800.998
925.237	805.409
926.907	823.153
928.576	801.564
930.245	805.976
931.914	821.72
933.584	815.464
935.253	815.876
936.92	822.953
938.588	821.365
940.255	819.776
941.922	802.187
943.589	808.598
945.255	803.676
946.921	832.087
948.587	806.498
950.252	812.242
951.917	806.654
953.582	831.731
955.244	840.143
956.909	826.554
958.572	834.965
960.236	824.709
961.899	819.12
963.562	827.531
965.225	823.943
966.887	811.02
968.549	826.765
970.211	850.509
971.872	828.254
973.531	817.332
975.192	832.409
976.852	833.487
978.512	827.898
980.172	832.976
981.831	821.387
983.489	828.465
985.148	805.543
986.806	821.954
988.464	816.365
990.122	836.11
991.778	835.854
993.435	834.932
995.092	808.676
996.749	858.421
998.404	841.499
1000.06	830.576
1001.72	819.654
1003.37	832.065
1005.02	836.476
1006.68	848.888
1008.33	837.299
1009.99	827.043
1011.64	831.454
1013.29	824.532
1014.95	832.943
1016.6	855.354
1018.25	837.765
1019.9	838.177
1021.55	857.921
1023.2	821.665
1024.85	833.41
1026.51	818.488
1028.16	840.232
1029.81	826.643
1031.46	846.388
1033.1	854.799
1034.75	843.21
1036.4	836.955
1038.05	846.699
1039.7	855.11
1041.34	844.188
1042.99	865.932
1044.64	851.01
1046.29	845.421
1047.93	833.832
1049.58	860.244
1051.22	838.655
1052.87	875.733
1054.51	840.81
1056.16	876.555
1057.8	868.966
1059.45	860.044
1061.09	862.455
1062.73	863.533
1064.38	874.61
1066.02	875.688
1067.66	868.099
1069.3	873.844
1070.95	875.588
1072.59	875.333
1074.23	885.744
1075.87	866.822
1077.51	873.899
1079.15	885.644
1080.79	862.055
1082.43	852.466
1084.07	884.211
1085.71	888.622
1087.35	863.033
1088.99	868.111
1090.62	879.188
1092.26	907.599
1093.9	866.011
1095.53	878.422
1097.17	876.166
1098.81	871.244
1100.44	878.322
1102.08	868.066
1103.71	859.144
1105.35	870.889
1106.99	881.966
1108.62	866.378
1110.25	856.122
1111.89	880.533
1113.52	866.278
1115.15	862.022
1116.79	870.433
1118.42	880.844
1120.05	889.922
1121.68	883.667
1123.31	858.078
1124.95	857.155
1126.58	872.9
1128.21	869.978
1129.84	860.389
1131.47	880.133
1133.1	865.878
1134.73	884.956
1136.36	894.7
1137.98	891.111
1139.61	866.189
1141.24	875.267
1142.87	891.678
1144.5	905.422
1146.12	892.5
1147.75	878.245
1149.38	891.989
1151	891.067
1152.63	920.811
1154.26	907.889
1155.88	917.634
1157.51	932.045
1159.13	909.789
1160.76	911.534
1162.38	897.278
1164	923.689
1165.63	908.1
1167.25	887.845
1168.87	892.256
1170.49	900.667
1172.12	901.745
1173.74	924.823
1175.36	907.901
1176.98	889.645
1178.6	909.389
1180.22	900.467
1181.84	911.545
1183.46	919.956
1185.08	936.367
1186.7	920.778
1188.32	927.856
1189.94	920.934
1191.56	935.345
1193.18	921.09
1194.79	919.501
1196.41	923.912
1198.03	952.99
1199.64	926.067
1201.26	920.479
1202.88	916.89
1204.49	905.301
1206.11	915.712
1207.72	911.456
1209.34	923.868
1210.95	927.612
1212.57	932.69
1214.18	937.768
1215.8	946.845
1217.41	931.923
1219.02	919.668
1220.64	924.079
1222.25	903.156
1223.86	913.568
1225.47	927.312
1227.08	939.723
1228.69	916.134
1230.3	899.212
1231.92	929.623
1233.53	912.701
1235.14	938.446
1236.75	888.19
1238.35	927.268
1239.96	907.012
1241.57	945.423
1243.18	919.168
1244.79	903.579
1246.4	922.657
1248.01	917.068
1249.61	925.479
1251.22	928.557
1252.82	928.968
1254.43	928.046
1256.04	927.124
1257.64	931.535
1259.25	913.946
1260.85	915.69
1262.46	931.435
1264.06	931.179
1265.67	956.257
1267.27	964.668
1268.87	932.413
1270.48	944.157
1272.08	943.902
1273.68	924.979
1275.28	951.39
1276.89	952.468
1278.49	975.546
1280.09	952.624
1281.69	935.035
1283.29	955.446
1284.89	963.857
1286.49	930.935
1288.09	939.013
1289.69	947.091
1291.29	948.835
1292.89	950.58
1294.49	939.657
1296.09	966.068
1297.68	953.813
1299.28	959.557
1300.88	963.302
1302.48	979.046
1304.07	979.458
1305.67	955.202
1307.26	958.946
1308.86	950.691
1310.46	957.102
1312.05	962.846
1313.65	962.591
1315.24	950.335
1316.84	963.413
1318.43	955.824
1320.02	978.235
1321.62	977.313
1323.21	960.391
1324.8	964.802
1326.39	969.213
1327.99	958.291
1329.58	966.702
1331.17	985.78
1332.76	956.858
1334.35	971.269
1335.94	977.013
1337.53	952.091
1339.12	958.502
1340.71	967.58
1342.3	967.991
1343.89	1095.07
1345.48	1075.48
1347.07	975.224
1348.65	988.969
1350.24	991.38
1351.83	979.125
1353.42	959.536
1355	965.28
1356.59	974.358
1358.18	972.102
1359.76	969.18
1361.35	980.925
1362.93	968.669
1364.52	959.747
1366.1	974.825
1367.69	962.569
1369.27	977.647
1370.86	1010.72
1372.44	982.469
1374.02	962.214
1375.61	977.958
1377.19	969.703
1378.77	990.114
1380.35	974.525
1381.93	967.603
1383.52	979.347
1385.1	964.425
1386.68	982.836
1388.26	985.914
1389.84	980.992
1391.42	1000.07
1393	1002.48
1394.58	984.892
1396.16	989.97
1397.74	993.714
1399.31	972.125
1400.89	986.536
1402.47	991.614
1404.05	1010.69
1405.63	975.103
1407.2	988.848
1408.78	995.925
1410.36	1005
1411.93	1000.75
1413.51	997.825
1415.08	1031.57
1416.66	995.981
1418.23	1003.73
1419.81	985.47
1421.38	1017.88
1422.95	1010.96
1424.53	1012.04
1426.1	979.114
1427.68	984.859
1429.25	1015.27
1430.82	1033.68
1432.39	989.425
1433.96	1013.84
1435.54	1022.91
1437.11	1010.66
1438.68	1019.74
1440.25	1038.15
1441.82	1031.23
1443.39	1026.97
1444.96	1008.71
1446.53	1023.79
1448.1	1008.87
1449.67	1019.28
1451.23	1017.69
1452.8	1033.44
1454.37	1026.51
1455.94	1020.26
1457.5	1026
1459.07	1027.08
1460.64	1017.49
1462.21	1003.9
1463.77	1022.98
1465.34	1031.39
1466.9	1015.8
1468.47	1021.55
1470.03	1001.96
1471.6	1003.7
1473.16	1015.45
1474.72	1033.86
1476.29	1036.27
1477.85	1004.01
1479.42	1007.09
1480.98	995.504
1482.54	1015.25
1484.1	1024.33
1485.66	1009.4
1487.23	1008.48
1488.79	1008.23
1490.35	1007.3
1491.91	1013.72
1493.47	1027.46
1495.03	985.204
1496.59	1024.28
1498.15	1048.03
1499.71	1033.1
1501.27	1025.52
1502.83	1031.26
1504.39	1029.67
1505.94	1008.75
1507.5	1043.16
1509.06	1036.24
1510.62	1038.65
1512.17	1059.73
1513.73	1062.8
1515.29	1048.55
1516.84	1076.96
1518.4	1058.7
1519.95	1059.12
1521.51	1104.86
1523.06	1068.6
1524.62	1095.02
1526.17	1066.09
1527.72	1065.84
1529.28	1092.25
1530.83	1072.66
1532.38	1077.74
1533.94	1082.82
1535.49	1058.56
1537.04	1085.64
1538.59	1075.38
1540.15	1063.79
1541.7	1077.54
1543.25	1078.62
1544.8	1070.36
1546.35	1058.1
1547.9	1062.52
1549.45	1073.59
1551	1040.67
1552.55	1049.75
1554.1	1054.16
1555.65	1054.57
1557.19	1069.65
1558.74	1071.39
1560.29	1068.47
1561.84	1076.88
1563.38	1067.96
1564.93	1067.7
1566.48	1056.78
1568.02	1054.53
1569.57	1045.6
1571.12	1064.02
1572.66	1056.43
1574.2	1067.5
1575.75	1071.92
1577.3	1078.99
1578.84	1055.41
1580.38	1061.15
1581.93	1068.89
1583.47	1066.64
1585.01	1073.05
1586.56	1054.79
1588.1	1041.21
1589.64	1070.28
1591.18	1039.36
1592.72	1083.77
1594.27	1060.85
1595.81	1083.26
1597.35	1043.01
1598.89	1043.42
1600.43	1065.16
1601.97	1074.91
1603.51	1057.32
1605.05	1044.39
1606.59	1073.28
1608.12	1052.38
1609.66	1047.6
1611.2	1040.63
1612.74	1047.38
1614.27	1051.95
1615.81	1035.34
1617.35	1033.39
1618.89	1054.71
1620.42	1058.93
1621.96	1049.24
1623.5	1052.01
1625.03	1058.34
1626.57	1083.17
1628.1	1064.93
1629.63	1060.21
1631.17	1042.62
1632.7	1072.52
1634.24	1060.62
1635.77	1057
1637.3	1053.87
1638.84	1076.48
1640.37	1049.86
1641.9	1061.15
1643.43	1073.4
1644.97	1041.72
1646.5	1055.15
1648.03	1041.14
1649.56	1055.4
1651.09	1057.26
1652.62	1068.06
1654.15	1078.72
1655.68	1068.23
1657.21	1058.51
1658.74	1075.08
1660.27	1084.66
1661.79	1058.09
1663.32	1081.29
1664.85	1076.88
1666.38	1069.28
1667.91	1079.15
1669.43	1078.89
1670.96	1070.35
1672.49	1076.74
1674.01	1085.47
1675.54	1057.7
1677.06	1062.71
1678.59	1070.36
1680.11	1068.86
1681.64	1096.8
1683.16	1075.13
1684.69	1091.2
1686.21	1074.52
1687.73	1081.13
1689.26	1049.51
1690.78	1072.61
1692.3	1069.6
1693.83	1076.08
1695.35	1073.78
1696.87	1071.05
1698.39	1059.33
1699.91	1065.02
1701.43	1071.67
1702.96	1070.03
1704.48	1075.82
1706	1052.06
1707.52	1069.94
1709.04	1047.01
1710.55	1065.4
1712.07	1065.51
1713.59	1065.51
1715.11	1048.93
1716.63	1038
1718.15	1067.84
1719.66	1053.94
1721.18	1053.21
1722.7	1052.03
1724.21	1037.28
1725.73	1047.7
1727.25	1047.69
1728.76	1056.65
1730.28	1041.24
1731.8	1050.56
1733.31	1035.33
1734.82	1020.8
1736.34	1025.18
1737.85	1033.21
1739.37	1021.98
1740.88	1027.19
1742.39	1043.78
1743.91	1031.77
1745.42	1027.57
1746.93	1027.91
1748.45	1028.66
1749.96	1051.92
1751.47	1025.13
1752.98	1031.04
1754.49	1040.09
1756	1039.12
1757.51	1037.89
1757.73	1037.43
1759.25	1028.54
1760.77	1008.33
1762.28	1028.11
1763.8	1049.22
1765.31	1049.67
1766.83	1031.45
1768.34	1035.23
1769.86	1042.35
1771.37	1039.46
1772.89	1013.91
1774.4	1026.36
1775.92	1047.47
1777.43	1041.25
1778.94	1027.03
1780.46	1062.15
1781.97	1031.26
1783.48	1065.71
1784.99	1050.83
1786.51	1063.27
1788.02	1026.39
1789.53	1045.5
1791.04	1042.62
1792.55	1065.73
1794.06	1054.18
1795.57	1041.96
1797.08	1032.41
1798.59	1037.52
1800.1	1058.64
1801.61	1042.42
1803.12	1052.2
1804.63	1054.65
1806.13	1047.1
1807.64	1052.88
1809.15	1059.99
1810.66	1039.11
1812.16	1055.99
1813.67	1052.87
1815.18	1063.09
1816.68	1056.64
1818.19	1030.19
1819.7	1034.41
1821.2	1065.96
1822.71	1044.18
1824.21	1043.73
1825.72	1052.61
1827.22	1052.83
1828.72	1043.71
1830.23	1056.59
1831.73	1042.81
1833.23	1052.36
1834.74	1052.58
1836.24	1056.79
1837.74	1037.01
1839.24	1025.9
1840.75	1045.45
1842.25	1033
1843.75	1033.88
1845.25	1063.43
1846.75	1038.98
1848.25	1031.86
1849.75	1033.41
1851.25	1020.3
1852.75	1036.51
1854.25	1072.06
1855.75	1024.28
1857.25	1029.16
1858.75	1049.38
1860.24	1023.6
1861.74	1033.82
1863.24	1026.7
1864.74	1042.25
1866.23	1016.47
1867.73	1052.68
1869.23	1036.23
1870.72	1029.12
1872.22	1040
1873.71	1025.55
1875.21	1039.77
1876.7	1007.98
1878.2	1032.2
1879.69	1041.08
1881.19	1028.63
1882.68	1031.52
1884.18	1060.4
1885.67	1028.62
1887.16	1034.17
1888.66	1047.05
1890.15	1014.6
1891.64	1038.82
1893.13	1029.04
1894.62	1024.59
1896.11	1032.14
1897.61	1021.02
1899.1	1031.24
1900.59	1042.79
1902.08	1040.34
1903.57	1027.89
1905.06	1010.77
1906.55	1027.65
1908.04	1034.54
1909.53	1044.76
1911.02	1035.64
1912.5	1034.52
1913.99	1024.74
1915.48	1051.62
1916.97	1045.84
1918.46	1037.39
1919.94	1025.61
1921.43	1033.16
1922.92	1026.04
1924.4	1047.59
1925.89	1041.81
1927.37	1030.69
1928.86	1057.57
1930.34	1043.79
1931.83	1018.68
1933.31	1064.23
1934.8	1020.44
1936.28	1035.33
1937.77	1037.54
1939.25	1058.43
1940.73	1024.64
1942.22	1026.19
1943.7	1026.41
1945.18	1029.96
1946.66	1046.18
1948.14	1043.06
1949.63	1034.61
1951.11	1030.83
1952.59	1052.38
1954.07	1038.6
1955.55	1011.48
1957.03	1036.36
1958.51	1032.58
1959.99	1050.13
1961.47	1021.01
1962.95	1020.56
1964.43	1008.78
1965.91	1043
1967.39	1019.21
1968.86	1021.43
1970.34	1015.65
1971.82	1026.53
1973.3	1032.08
1974.77	1043.63
1976.25	1035.18
1977.73	1048.73
1979.2	1033.62
1980.68	1022.5
1982.15	1015.38
1983.63	1009.6
1985.1	1022.48
1986.58	1043.37
1988.05	1008.92
1989.53	1017.8
1991	1016.02
1992.47	1010.9
1993.95	1010.45
1995.42	982.001
1996.89	1040.22
1998.37	1011.77
1999.84	1011.32
2001.31	1025.54
2002.78	1011.09
2004.25	1008.64
2005.73	1005.52
2007.2	1017.74
2008.67	989.286
2010.14	1004.17
2011.61	1021.72
2013.08	1012.6
2014.55	1027.49
2016.02	1019.7
2017.49	1001.25
2018.96	1006.8
2020.42	1021.69
2021.89	1006.57
2023.36	1008.12
2024.83	1013.67
2026.3	1011.89
2027.76	1026.77
2029.23	1002.32
2030.7	1001.87
2032.16	1006.09
2033.63	1014.97
2035.09	1012.52
2036.56	1001.41
2038.03	1026.29
2039.49	986.508
2040.96	1009.39
2042.42	1008.27
2043.88	1006.49
2045.35	995.375
2046.81	1007.59
2048.28	1007.81
2049.74	1010.03
2051.2	1012.91
2052.67	982.46
2054.13	1000.01
2055.59	996.227
2057.05	1017.78
2058.51	1018.66
2059.97	1012.88
2061.43	1009.09
2062.9	997.311
2064.36	1030.19
2065.82	1017.08
2067.28	1017.29
2068.74	1018.18
2070.2	1008.4
2071.65	981.946
2073.11	985.496
2074.57	997.713
2076.03	993.929
2077.49	1010.15
2078.95	1007.03
2080.4	1000.58
2081.86	995.464
2083.32	991.014
2084.78	979.898
2086.23	980.781
2087.69	990.331
2089.15	981.881
2090.6	999.432
2092.05	997.649
2093.51	983.865
2094.97	999.416
2096.42	982.966
2097.87	985.183
2099.33	985.4
2100.78	990.283
2102.24	987.167
2103.69	980.717
2105.14	1020.27
2106.6	989.818
2108.05	980.701
2109.5	972.918
2110.95	973.801
2112.4	958.018
2113.86	972.235
2115.31	983.119
2116.76	968.002
2118.21	976.219
2119.66	967.769
2121.11	984.653
2122.56	985.536
2124.01	957.087
2125.46	992.637
2126.91	971.52
2128.35	988.404
2129.8	957.954
2131.25	993.504
2132.7	968.388
2134.15	967.271
2135.59	964.155
2137.04	957.705
2138.49	981.255
2139.94	976.806
2141.38	968.356
2142.83	973.906
2144.27	984.79
2145.72	947.007
2147.16	973.223
2148.61	962.107
2150.05	963.657
2151.5	991.874
2152.94	990.758
2154.39	962.974
2155.83	963.858
2157.27	978.741
2158.72	956.292
2160.16	987.175
2161.6	968.726
2163.05	973.609
2164.49	963.826
2165.93	968.71
2167.37	970.926
2168.81	972.477
2170.26	986.694
2171.7	965.577
2173.14	995.794
2174.58	965.344
2176.02	958.228
2177.46	964.445
2178.9	976.661
2180.34	986.878
2181.77	959.762
2183.21	955.979
2184.65	950.196
2186.09	941.079
2187.53	969.296
2188.97	957.513
2190.4	957.73
2191.84	972.613
2193.28	951.497
2194.71	978.38
2196.15	965.264
2197.59	977.481
2199.02	949.698
2200.46	965.248
2201.89	960.132
2203.33	943.682
2204.76	956.565
2206.2	952.115
2207.63	956.999
2209.07	966.549
2210.5	954.766
2211.93	927.65
2213.37	951.2
2214.8	946.083
2216.23	950.967
2217.67	929.851
2219.1	930.068
2220.53	952.951
2221.96	935.168
2223.39	946.718
2224.82	948.935
2226.26	922.485
2227.69	930.035
2229.12	938.252
2230.55	947.802
2231.98	909.353
2233.41	934.236
2234.84	929.786
2236.26	913.337
2237.69	916.887
2239.12	919.77
2240.55	893.987
2241.98	930.871
2243.41	917.088
2244.83	906.638
2246.26	922.855
2247.69	904.405
2249.11	895.289
2250.54	904.172
2251.97	917.722
2253.39	900.606
2254.82	908.823
2256.24	899.706
2257.67	919.923
2259.09	922.14
2260.52	901.69
2261.94	908.574
2263.37	903.457
2264.79	889.008
2266.22	905.891
2267.64	911.441
2269.06	895.658
2270.49	890.542
2271.91	906.759
2273.33	894.976
2274.75	914.526
2276.18	880.076
2277.59	911.626
2279.02	913.176
2280.44	884.06
2281.86	918.277
2283.28	899.16
2284.7	914.044
2286.12	914.928
2287.54	877.144
2288.96	895.361
2290.38	907.578
2291.8	867.795
2293.22	910.012
2294.63	902.896
2296.05	895.779
2297.47	907.329
2298.89	886.879
2300.31	899.763
2301.72	895.313
2303.14	918.863
2304.56	886.414
2305.97	909.297
2307.39	900.847
2308.81	895.731
2310.22	889.948
2311.64	892.831
2313.05	903.048
2314.47	911.265
2315.88	914.815
2317.3	908.366
2318.71	891.916
2320.12	896.133
2321.54	893.683
2322.95	913.9
2324.36	894.783
2325.78	911.667
2327.19	914.55
2328.6	889.434
2330.01	908.984
2331.43	915.201
2332.84	916.085
2334.25	870.968
2335.66	919.185
2337.07	926.735
2338.48	892.285
2339.89	875.836
2341.3	903.386
2342.71	905.603
2344.12	887.82
2345.53	895.37
2346.94	894.253
2348.35	889.137
2349.76	894.021
2351.17	880.237
2352.57	894.454
2353.98	889.338
2355.39	886.888
2356.8	885.105
2358.2	898.655
2359.61	892.205
2361.02	898.422
2362.42	881.972
2363.83	880.189
2365.23	871.073
2366.64	883.956
2368.04	892.173
2369.45	887.724
2370.85	849.274
2372.26	888.157
2373.66	889.708
2375.07	895.924
2376.47	866.808
2377.87	859.691
2379.28	860.575
2380.68	872.792
2382.08	876.342
2383.49	857.892
2384.89	866.776
2386.29	870.326
2387.69	846.543
2389.09	866.093
2390.49	834.977
2391.9	861.86
2393.3	857.41
2394.7	857.627
2396.1	850.511
2397.5	868.061
2398.9	860.278
2400.29	853.161
2401.69	867.378
2403.09	854.262
2404.49	882.479
2405.89	846.029
2407.29	850.913
2408.69	865.13
2410.08	839.346
2411.48	863.563
2412.88	852.447
2414.28	856.664
2415.67	854.881
2417.07	847.764
2418.47	875.981
2419.86	860.198
2421.26	840.415
2422.65	859.965
2424.05	865.515
2425.44	852.399
2426.84	845.282
2428.23	874.166
2429.62	857.716
2431.02	860.6
2432.41	855.483
2433.81	845.033
2435.2	871.25
2436.59	858.8
2437.98	881.684
2439.38	866.568
2440.77	876.118
2442.16	867.001
2443.55	855.218
2444.94	858.768
2446.34	846.985
2447.73	876.536
2449.12	851.419
2450.51	870.303
2451.9	857.853
2453.29	875.403
2454.68	867.62
2456.07	880.503
2457.46	856.054
2458.84	865.604
2460.23	881.821
2461.62	873.371
2463.01	851.588
2464.4	881.805
2465.78	854.022
2467.17	863.572
2468.56	882.455
2469.95	868.006
2471.33	864.889
2472.72	851.773
2474.1	888.656
2475.49	854.206
2476.88	857.757
2478.26	875.307
2479.65	856.857
2481.03	874.407
2482.42	864.624
2483.8	883.508
2485.19	847.725
2486.57	840.608
2487.95	860.158
2489.34	852.375
2490.72	847.259
2492.1	880.142
2493.49	833.026
2494.87	866.576
2496.25	870.126
2497.63	850.343
2499.01	861.227
2500.39	884.11
2501.77	854.327
2503.16	849.877
2504.54	858.761
2505.92	859.644
2507.3	867.861
2508.68	872.745
2510.06	853.628
2511.44	883.845
2512.81	846.062
2514.19	848.946
2515.57	862.496
2516.95	819.38
2518.33	860.263
2519.71	840.48
2521.08	840.03
2522.46	857.58
2523.84	855.797
2525.22	850.014
2526.59	842.231
2527.97	857.115
2529.35	853.998
2530.72	828.215
2532.1	849.099
2533.47	843.315
2534.85	818.199
2536.22	849.083
2537.6	848.633
2538.97	834.85
2540.35	841.066
2541.72	845.95
2543.09	846.167
2544.47	819.051
2545.84	851.267
2547.21	838.151
2548.59	825.034
2549.96	831.251
2551.33	850.802
2552.7	813.018
2554.08	834.569
2555.45	816.786
2556.82	827.669
2558.19	831.219
2559.56	848.77
2560.93	835.653
2562.3	829.87
2563.67	832.754
2565.04	826.304
2566.41	824.521
2567.78	817.404
2569.15	808.954
2570.52	850.505
2571.89	837.388
2573.25	818.938
2574.62	841.822
2575.99	831.372
2577.36	835.589
2578.73	832.473
2580.09	845.356
2581.46	856.24
2582.83	821.79
2584.19	861.34
2585.56	825.557
2586.93	822.44
2588.29	847.991
2589.66	828.874
2591.02	836.424
2592.39	821.975
2593.75	810.192
2595.12	869.742
2596.48	838.625
2597.84	846.176
2599.21	840.392
2600.57	838.609
2601.93	850.159
2603.3	824.376
2604.66	830.593
2606.02	861.477
2607.39	835.694
2608.75	844.577
2610.11	856.794
2611.47	836.344
2612.83	847.228
2614.19	843.445
2615.55	852.995
2616.91	861.879
2618.27	857.429
2619.63	841.646
2620.99	857.863
2622.35	844.746
2623.71	836.296
2625.07	839.18
2626.43	845.397
2627.79	818.28
2629.15	846.497
2630.51	844.714
2631.86	864.264
2633.22	871.815
2634.58	850.698
2635.94	843.582
2637.29	831.798
2638.65	848.682
2640.01	802.232
2641.36	836.449
2642.72	842.666
2644.08	868.216
2645.43	827.1
2646.79	837.317
2648.14	831.534
2649.49	835.084
2650.85	838.634
2652.2	848.851
2653.56	841.068
2654.91	833.951
2656.26	828.168
2657.62	852.385
2658.97	832.602
2660.32	831.485
2661.68	857.702
2663.03	840.586
2664.38	822.136
2665.73	825.686
2667.09	816.57
2668.44	814.787
2669.79	829.67
2671.14	829.221
2672.49	830.104
2673.84	863.654
2675.19	841.204
2676.54	842.088
2677.89	827.638
2679.24	828.522
2680.59	838.072
2681.94	821.622
2683.29	820.506
2684.63	828.056
2685.98	852.94
2687.33	811.156
2688.68	816.04
2690.03	802.923
2691.37	822.474
2692.72	808.691
2694.07	800.907
2695.41	821.124
2696.76	806.675
2698.11	834.225
2699.45	816.442
2700.8	831.992
2702.14	797.542
2703.49	827.759
2704.83	823.976
2706.18	811.526
2707.52	801.076
2708.87	815.293
2710.21	823.51
2711.55	818.393
2712.9	816.61
2714.24	811.494
2715.58	803.711
2716.93	809.261
2718.27	808.811
2719.61	828.362
2720.95	828.578
2722.3	812.795
2723.64	825.679
2724.98	836.562
2726.32	834.779
2727.66	816.996
2729	828.546
2730.34	820.763
2731.68	821.647
2733.02	800.53
2734.36	809.414
2735.7	825.631
2737.04	821.848
2738.38	841.398
2739.72	833.615
2741.06	835.832
2742.39	830.048
2743.73	843.599
2745.07	819.816
2746.41	826.032
2747.74	853.583
2749.08	824.466
2750.42	824.683
2751.75	814.9
2753.09	814.45
2754.43	817.334
2755.76	825.551
2757.1	823.768
2758.43	827.984
2759.77	811.535
2761.1	846.418
2762.44	837.302
2763.77	819.519
2765.11	833.069
2766.44	803.952
2767.78	808.169
2769.11	833.053
2770.44	826.603
2771.78	831.487
2773.11	835.703
2774.44	834.587
2775.77	806.804
2777.11	843.687
2778.44	831.904
2779.77	838.788
2781.1	819.671
2782.43	828.555
2783.76	824.105
2785.09	832.989
2786.42	843.872
2787.76	813.422
2789.08	820.306
2790.41	818.523
2791.74	831.406
2793.07	854.29
2794.4	811.84
2795.73	840.057
2797.06	809.607
2798.39	830.491
2799.72	830.708
2801.04	812.258
2802.37	808.475
2803.7	824.025
2805.03	820.909
2806.35	813.792
2807.68	835.342
2809.01	802.893
2810.33	805.776
2811.66	812.66
2812.98	792.21
2814.31	803.093
2815.63	824.644
2816.96	809.527
2818.28	799.744
2819.61	826.628
2820.94	834.844
2822.26	813.728
2823.58	824.612
2824.91	821.495
2826.23	815.712
2827.55	823.929
2828.88	822.146
2830.2	809.696
2831.52	805.246
2832.84	816.796
2834.16	827.013
2835.49	823.23
2836.81	814.78
2838.13	820.997
2839.45	827.214
2840.77	833.431
2842.09	814.981
2843.41	812.531
2844.73	836.082
2846.05	840.298
2847.37	820.516
2848.69	830.066
2850.01	808.283
2851.33	790.499
2852.65	806.05
2853.97	785.6
2855.29	827.817
2856.6	817.367
2857.92	841.584
2859.24	835.801
2860.56	821.351
2861.87	814.234
2863.19	821.785
2864.51	850.668
2865.82	815.552
2867.14	801.769
2868.46	801.319
2869.77	827.536
2871.09	819.753
2872.4	805.303
2873.72	824.186
2875.03	827.737
2876.35	787.953
2877.66	812.837
2878.98	825.054
2880.29	824.604
2881.6	832.154
2882.92	825.038
2884.23	835.255
2885.54	848.138
2886.86	809.689
2888.17	827.239
2889.48	835.456
2890.79	830.339
2892.1	815.889
2893.42	849.44
2894.73	818.323
2896.04	843.873
2897.35	820.757
2898.66	837.64
2899.97	838.524
2901.28	826.074
2902.59	837.625
2903.9	827.841
2905.21	821.392
2906.52	822.942
2907.83	811.825
2909.14	837.375
2910.45	828.926
2911.76	815.143
2913.06	833.359
2914.37	831.576
2915.68	836.46
2916.99	835.343
2918.29	850.44
2919.6	819.776
2920.91	818.421
2922.21	832.61
2923.52	820.071
2924.83	812.109
2926.13	819.042
2927.44	827.537
2928.74	797.447
2930.05	830.362
2931.35	829.051
2932.66	801.13
2933.96	809.216
2935.27	821.657
2936.57	798.206
2937.88	804.198
2939.18	822.451
2940.48	810.371
2941.79	805.638
2943.09	812.446
2944.39	802.037
2945.69	809.89
2946.99	804.697
2948.3	780.237
2949.6	807.852
2950.9	796.272
2952.2	820.208
2953.5	780.392
2954.8	780.153
2956.1	805.997
2957.4	798.235
2958.7	779.253
2960	782.777
2961.3	782.132
2962.6	774.469
2963.9	772.322
2965.2	770.812
2966.5	769.609
2967.8	786.176
2969.1	776.232
2970.4	763.793
2971.69	751.415
2972.99	774.17
2974.29	747.7
2975.59	762.37
2976.88	756.039
2978.18	764.247
2979.48	770.072
2980.77	757.583
2982.07	759.286
2983.36	757.928
2984.66	748.951
2985.95	752.699
2987.25	766.939
2988.55	745.332
2989.84	758.765
2991.13	755.782
2992.43	742.569
2993.72	727.691
2995.02	756.065
2996.31	752.012
2997.6	749.773
2998.9	747.364
3000.19	756.18
3001.48	736.105
3002.77	735.378
3004.07	737.013
3005.36	734.123
3006.65	730.893
3007.94	723.057
3009.23	722.294
3010.53	726.653
3011.82	740.409
3013.11	714.41
3014.4	742.685
3015.69	724.984
3016.98	729.517
3018.27	725.533
3019.56	733.254
3020.85	727.301
3022.13	714.063
3023.42	726.289
3024.71	726.545
3026	722.368
3027.29	714.728
3028.58	730.814
3029.86	712.717
3031.15	735.13
3032.44	720.747
3033.73	715.298
3035.01	725.536
3036.3	729.138
3037.58	724.981
3038.87	717.153
3040.16	719.26
3041.44	728.218
3042.73	721.868
3044.01	723.044
3045.3	707.807
3046.58	703.053
3047.87	713.451
3048.04	714.634
3049.33	711.049
3050.62	727.464
3051.91	725.879
3053.2	715.627
3054.49	705.376
3055.77	706.457
3057.06	707.539
3058.35	713.954
3059.64	713.702
3060.93	721.451
3062.22	716.532
3063.51	715.614
3064.79	721.362
3066.08	722.444
3067.37	716.192
3068.66	719.941
3069.94	705.022
3071.23	710.104
3072.52	719.852
3073.8	702.267
3075.09	732.682
3076.37	723.764
3077.66	708.179
3078.94	711.927
3080.23	721.009
3081.51	713.424
3082.8	714.505
3084.08	719.587
3085.37	727.335
3086.65	707.75
3087.94	703.498
3089.22	727.914
3090.5	705.662
3091.78	718.743
3093.07	706.492
3094.35	718.907
3095.63	708.655
3096.91	697.07
3098.2	722.152
3099.48	706.567
3100.76	696.982
3102.04	708.73
3103.32	681.812
3104.6	722.893
3105.88	715.975
3107.16	714.39
3108.44	687.471
3109.72	707.886
3111	714.968
3112.28	713.383
3113.56	707.798
3114.84	700.213
3116.12	709.961
3117.4	708.376
3118.68	704.125
3119.96	709.206
3121.23	706.955
3122.51	707.37
3123.79	697.785
3125.07	714.866
3126.34	723.281
3127.62	716.363
3128.9	710.778
3130.18	709.859
3131.45	708.274
3132.73	704.023
3134	715.104
3135.28	712.186
3136.55	709.268
3137.83	717.683
3139.1	707.431
3140.38	715.179
3141.65	723.594
3142.93	693.343
3144.2	697.091
3145.47	724.173
3146.75	709.921
3148.02	723.669
3149.29	726.084
3150.57	700.499
3151.84	722.247
3153.11	711.329
3154.39	715.077
3155.66	734.159
3156.93	722.574
3158.2	713.656
3159.47	716.737
3160.74	702.486
3162.01	718.901
3163.28	724.649
3164.56	710.397
3165.83	715.479
3167.1	720.56
3168.37	722.975
3169.64	716.724
3170.91	709.805
3172.18	708.887
3173.44	723.302
3174.71	704.384
3175.98	726.799
3177.25	701.214
3178.52	728.962
3179.79	720.044
3181.05	711.125
3182.32	710.874
3183.59	706.622
3184.86	714.37
3186.12	701.452
3187.39	714.534
3188.66	716.282
3189.92	708.697
3191.19	718.445
3192.45	698.86
3193.72	711.275
3194.98	699.023
3196.25	728.772
3197.51	708.52
3198.78	698.935
3200.04	702.683
3201.31	711.098
3202.57	688.18
3203.84	689.262
3205.1	704.343
3206.36	687.425
3207.63	703.84
3208.89	698.921
3210.15	696.67
3211.41	713.751
3212.68	710.833
3213.94	711.248
3215.2	712.33
3216.46	708.745
3217.72	700.493
3218.99	704.241
3220.25	687.99
3221.51	693.071
3222.77	689.486
3224.03	709.901
3225.29	699.65
3226.55	701.398
3227.81	697.146
3229.07	692.228
3230.33	703.976
3231.59	688.391
3232.84	697.473
3234.1	717.221
3235.36	666.969
3236.62	697.384
3237.88	677.799
3239.13	682.881
3240.39	695.963
3241.65	695.044
3242.91	683.459
3244.16	684.541
3245.42	683.622
3246.68	680.704
3247.93	692.452
3249.19	699.534
3250.45	693.949
3251.7	685.031
3252.96	692.779
3254.21	709.861
3255.47	701.609
3256.72	697.357
3257.98	682.439
3259.23	687.521
3260.49	683.936
3261.74	695.017
3262.99	664.766
3264.25	705.18
3265.5	691.595
3266.75	688.01
3268	683.092
3269.26	676.174
3270.51	702.589
3271.76	695.67
3273.02	700.085
3274.27	687.834
3275.52	679.582
3276.77	685.33
3278.02	675.079
3279.27	688.16
3280.52	688.575
3281.77	696.99
3283.02	686.738
3284.27	696.487
3285.52	667.568
3286.77	679.317
3288.02	681.065
3289.27	704.813
3290.52	685.228
3291.77	692.31
3293.02	700.058
3294.27	679.807
3295.51	682.888
3296.76	695.303
3298.01	684.385
3299.26	674.133
3300.5	689.215
3301.75	704.963
3303	685.378
3304.24	699.793
3305.49	684.208
3306.74	683.956
3307.99	688.371
3309.23	698.786
3310.48	693.201
3311.72	692.283
3312.97	691.365
3314.21	683.78
3315.46	708.861
3316.7	677.276
3317.94	667.025
3319.19	692.106
3320.43	701.854
3321.68	674.936
3322.92	692.684
3324.16	673.099
3325.41	668.848
3326.65	677.263
3327.89	671.011
3329.13	690.759
3330.38	671.841
3331.62	669.589
3332.86	676.004
3334.1	676.419
3335.34	677.501
3336.58	672.583
3337.83	681.664
3339.07	692.746
3340.31	692.494
3341.55	668.909
3342.79	681.991
3344.03	671.739
3345.27	669.487
3346.51	671.902
3347.75	683.651
3348.99	688.732
3350.22	673.814
3351.46	679.562
3352.7	670.644
3353.94	682.392
3355.18	672.807
3356.42	687.222
3357.65	677.637
3358.89	671.385
3360.13	665.8
3361.36	668.215
3362.6	655.297
3363.84	687.712
3365.07	678.127
3366.31	671.209
3367.55	663.624
3368.78	653.372
3370.02	653.787
3371.25	654.202
3372.49	681.284
3373.72	663.032
3374.96	641.447
3376.19	658.529
3377.43	670.943
3378.66	662.692
3379.89	656.44
3381.13	648.855
3382.36	649.937
3383.59	653.685
3384.83	653.433
3386.06	651.848
3387.29	644.93
3388.52	648.678
3389.76	665.76
3390.99	644.175
3392.22	657.923
3393.45	662.338
3394.68	655.42
3395.91	650.502
3397.15	646.916
3398.38	658.665
3399.61	655.08
3400.84	656.161
3402.07	647.243
3403.3	667.658
3404.53	650.073
3405.76	651.821
3406.99	628.903
3408.21	662.651
3409.44	653.733
3410.67	640.148
3411.9	645.23
3413.13	644.978
3414.36	652.726
3415.58	638.474
3416.81	656.223
3418.04	658.638
3419.27	670.386
3420.49	658.801
3421.72	642.549
3422.95	653.631
3424.17	656.046
3425.4	647.794
3426.62	648.876
3427.85	645.291
3429.08	651.706
3430.3	640.121
3431.53	639.869
3432.75	655.618
3433.98	648.033
3435.2	649.781
3436.42	642.862
3437.65	639.277
3438.87	656.359
3440.1	652.774
3441.32	667.189
3442.54	652.271
3443.76	645.352
3444.99	644.434
3446.21	639.516
3447.43	663.264
3448.66	647.679
3449.88	651.427
3451.1	647.176
3452.32	640.257
3453.54	658.005
3454.76	657.754
3455.98	656.835
3457.21	646.584
3458.43	676.999
3459.65	652.08
3460.87	653.829
3462.09	662.244
3463.3	649.992
3464.53	643.074
3465.74	639.489
3466.96	635.237
3468.18	628.985
3469.4	636.067
3470.62	641.148
3471.84	643.563
3473.06	642.645
3474.27	636.393
3475.49	630.142
3476.71	637.223
3477.93	633.638
3479.14	610.053
3480.36	632.468
3481.58	645.55
3482.79	626.632
3484.01	632.38
3485.22	636.128
3486.44	628.543
3487.66	648.292
3488.87	646.04
3490.09	630.455
3491.3	619.536
3492.52	623.951
3493.73	639.033
3494.95	621.448
3496.16	627.863
3497.37	615.611
3498.59	638.693
3499.8	621.775
3501.01	622.19
3502.23	625.271
3503.44	629.02
3504.65	636.101
3505.87	600.516
3507.08	615.598
3508.29	614.013
3509.5	613.094
3510.71	614.176
3511.93	623.924
3513.14	598.339
3514.35	584.754
3515.56	603.169
3516.77	594.251
3517.98	602.666
3519.19	597.081
3520.4	576.829
3521.61	579.911
3522.82	588.326
3524.03	616.741
3525.24	597.823
3526.45	593.571
3527.66	588.652
3528.86	581.067
3530.07	582.816
3531.28	584.564
3532.49	583.646
3533.7	593.394
3534.9	591.809
3536.11	588.891
3537.32	598.639
3538.53	587.721
3539.73	572.135
3540.94	591.217
3542.15	578.966
3543.35	590.047
3544.56	599.796
3545.76	584.211
3546.97	575.959
3548.18	588.374
3549.38	585.455
3550.59	565.204
3551.79	576.952
3553	568.034
3554.2	603.782
3555.4	591.53
3556.61	573.279
3557.81	576.36
3559.02	576.109
3560.22	577.857
3561.42	573.605
3562.62	580.687
3563.83	569.768
3565.03	574.183
3566.23	569.265
3567.44	575.68
3568.64	583.428
3569.84	573.177
3571.04	579.592
3572.24	576.007
3573.44	565.088
3574.64	578.837
3575.84	571.918
3577.04	574.333
3578.25	578.082
3579.45	573.83
3580.65	572.245
3581.84	593.326
3583.04	566.408
3584.24	585.49
3585.44	569.905
3586.64	578.32
3587.84	591.401
3589.04	567.15
3590.24	572.898
3591.44	597.313
3592.63	581.061
3593.83	556.143
3595.03	549.891
3596.23	570.306
3597.42	566.055
3598.62	570.469
3599.82	556.218
3601.01	562.633
3602.21	563.714
3603.41	580.796
3604.6	571.211
3605.8	564.293
3606.99	572.041
3608.19	567.789
3609.38	588.204
3610.58	563.953
3611.77	569.034
3612.97	578.116
3614.16	570.531
3615.36	582.279
3616.55	552.027
3617.74	583.776
3618.94	558.191
3620.13	561.939
3621.32	567.687
3622.52	567.436
3623.71	558.517
3624.9	560.266
3626.09	564.014
3627.29	544.429
3628.48	552.177
3629.67	540.592
3630.86	561.674
3632.05	566.756
3633.24	560.504
3634.44	562.252
3635.63	552.667
3636.82	543.749
3638.01	542.164
3639.2	568.579
3640.39	546.994
3641.58	556.075
3642.77	544.49
3643.95	551.572
3645.15	537.987
3646.33	549.735
3647.52	558.817
3648.71	559.899
3649.9	534.98
3651.09	536.729
3652.28	541.143
3653.46	555.558
3654.65	551.307
3655.84	567.055
3657.03	548.803
3658.21	561.218
3659.4	550.3
3660.58	532.048
3661.77	545.13
3662.96	536.878
3664.14	535.96
3665.33	541.708
3666.52	532.123
3667.7	533.205
3668.89	535.62
3670.07	530.035
3671.25	545.116
3672.44	517.531
3673.62	519.946
3674.81	517.695
3675.99	525.443
3677.18	524.525
3678.36	531.606
3679.54	525.355
3680.73	521.103
3681.91	528.851
3683.09	535.933
3684.27	518.348
3685.46	516.096
3686.64	501.178
3687.82	516.26
3689	516.674
3690.19	513.089
3691.37	510.838
3692.55	494.586
3693.73	525.668
3694.91	527.416
3696.09	522.498
3697.27	496.246
3698.45	498.661
3699.63	512.409
3700.81	524.824
3701.99	497.239
3703.17	500.321
3704.35	510.069
3705.53	502.484
3706.71	499.566
3707.89	507.981
3709.06	507.062
3710.24	500.144
3711.42	499.226
3712.6	502.307
3713.78	503.389
3714.95	496.471
3716.13	492.886
3717.31	502.634
3718.48	491.049
3719.66	516.797
3720.84	503.879
3722.01	506.961
3723.19	508.042
3724.37	503.79
3725.54	494.872
3726.72	505.287
3727.89	489.035
3729.07	510.784
3730.24	497.865
3731.42	498.28
3732.59	491.362
3733.77	495.11
3734.94	504.192
3736.12	513.94
3737.29	493.689
3738.46	498.77
3739.64	487.852
3740.81	514.934
3741.98	510.015
3743.15	497.097
3744.33	498.178
3745.5	499.26
3746.67	500.342
3747.84	510.757
3749.02	503.172
3750.19	503.587
3751.36	505.335
3752.53	489.75
3753.7	493.498
3754.87	491.913
3756.04	514.328
3757.21	495.41
3758.38	506.492
3759.55	490.24
3760.72	485.988
3761.89	499.736
3763.06	498.818
3764.23	499.9
3765.4	480.315
3766.57	508.063
3767.74	501.145
3768.91	492.893
3770.08	485.975
3771.24	499.056
3772.41	496.805
3773.58	488.553
3774.75	482.968
3775.91	489.383
3777.08	502.465
3778.25	497.546
3779.41	491.294
3780.58	488.376
3781.75	490.791
3782.91	482.539
3784.08	496.288
3785.25	478.036
3786.41	503.118
3787.58	476.199
3788.74	475.948
3789.91	486.363
3791.07	482.111
3792.24	469.859
3793.4	490.274
3794.57	469.356
3795.73	479.771
3796.89	480.186
3798.06	471.934
3799.22	485.016
3800.38	494.764
3801.55	485.179
3802.71	488.261
3803.87	474.009
3805.03	475.757
3806.2	469.506
3807.36	467.254
3808.52	473.669
3809.68	480.084
3810.84	476.499
3812.01	466.247
3813.17	471.996
3814.33	472.41
3815.49	460.825
3816.65	479.24
3817.81	485.655
3818.97	453.404
3820.13	459.819
3821.29	456.234
3822.45	470.649
3823.61	462.397
3824.77	452.812
3825.93	461.894
3827.09	436.309
3828.24	439.39
3829.4	458.472
3830.56	450.887
3831.72	445.302
3832.88	459.717
3834.04	461.465
3835.19	447.213
3836.35	446.962
3837.51	452.043
3838.66	465.125
3839.82	452.207
3840.98	437.955
3842.13	442.37
3843.29	439.452
3844.45	443.867
3845.6	430.948
3846.76	461.363
3847.91	454.445
3849.07	437.526
3850.22	433.275
3851.38	427.69
3852.53	464.771
3853.69	430.52
3854.84	442.935
3856	454.016
3857.15	432.431
3858.3	440.846
3859.46	441.928
3860.61	436.343
3861.76	441.425
3862.92	443.84
3864.07	424.255
3865.22	441.336
3866.37	441.085
3867.53	447.499
3868.68	445.248
3869.83	433.663
3870.98	443.411
3872.13	442.493
3873.28	445.574
3874.43	427.989
3875.59	449.071
3876.74	433.486
3877.89	439.234
3879.04	418.983
3880.19	428.064
3881.34	442.479
3882.49	437.561
3883.64	432.642
3884.79	452.391
3885.93	446.806
3887.08	431.221
3888.23	428.969
3889.38	444.051
3890.53	437.132
3891.68	429.547
3892.83	448.629
3893.97	426.377
3895.12	436.126
3896.27	429.874
3897.41	452.956
3898.56	432.037
3899.71	429.119
3900.86	434.201
3902	435.282
3903.15	433.03
3904.29	432.779
3905.44	422.527
3906.59	438.942
3907.73	430.024
3908.88	451.105
3910.02	428.854
3911.17	441.935
3912.31	427.017
3913.46	421.432
3914.6	421.847
3915.75	434.262
3916.89	425.344
3918.03	428.425
3919.18	454.173
3920.32	429.922
3921.46	425.67
3922.61	420.085
3923.75	427.833
3924.89	440.248
3926.03	415.997
3927.18	450.412
3928.32	438.827
3929.46	433.242
3930.6	431.657
3931.74	433.405
3932.89	407.82
3934.03	416.235
3935.17	419.317
3936.31	428.398
3937.45	422.146
3938.59	432.561
3939.73	423.643
3940.87	414.058
3942.01	413.806
3943.15	434.221
3944.29	418.636
3945.43	425.718
3946.57	416.133
3947.71	414.548
3948.84	415.63
3949.98	416.045
3951.12	416.46
3952.26	422.208
3953.4	429.289
3954.54	401.704
3955.67	407.453
3956.81	405.201
3957.95	417.616
3959.09	408.031
3960.22	408.446
3961.36	414.861
3962.5	402.609
3963.63	417.024
3964.77	396.106
3965.9	399.188
3967.04	400.936
3968.18	409.351
3969.31	397.099
3970.45	410.847
3971.58	415.262
3972.72	382.344
3973.85	403.426
3974.99	394.507
3976.12	408.256
3977.25	401.337
3978.39	391.086
3979.52	390.167
3980.65	389.249
3981.79	387.664
3982.92	396.079
3984.05	385.827
3985.19	388.242
3986.32	384.657
3987.45	375.739
3988.58	389.487
3989.72	387.235
3990.85	397.65
3991.98	380.065
3993.11	385.147
3994.24	383.562
3995.37	381.977
3996.5	382.392
3997.64	381.474
3998.77	391.222
3999.9	378.304
